Mar. 20, 2019   07:17:46
Cyclic Voltammetry
File: e:\sine_wave_volt_rucn6\text_copy\dc\dcrucn2-2.txt
Data Source:  Experiment
Instrument Model:  CHI760E
Header: 
Note: 

Init E (V) = 0.3
High E (V) = 1.3
Low E (V) = 0.3
Init P/N = P
Scan Rate (V/s) = 0.1
Segment = 2
Sample Interval (V) = 0.001
Quiet Time (sec) = 2
Sensitivity (A/V) = 1e-5

Segment 1:
Segment 2:

Potential/V, Current/A

0.300, -3.343e-8
0.301, 4.205e-8
0.302, 8.150e-8
0.303, 1.074e-7
0.304, 1.251e-7
0.305, 1.419e-7
0.306, 1.543e-7
0.307, 1.673e-7
0.308, 1.775e-7
0.309, 1.874e-7
0.310, 1.958e-7
0.311, 2.046e-7
0.312, 2.103e-7
0.313, 2.179e-7
0.314, 2.234e-7
0.315, 2.308e-7
0.316, 2.362e-7
0.317, 2.417e-7
0.318, 2.467e-7
0.319, 2.525e-7
0.320, 2.563e-7
0.321, 2.619e-7
0.322, 2.653e-7
0.323, 2.703e-7
0.324, 2.739e-7
0.325, 2.778e-7
0.326, 2.811e-7
0.327, 2.858e-7
0.328, 2.878e-7
0.329, 2.925e-7
0.330, 2.947e-7
0.331, 2.983e-7
0.332, 3.009e-7
0.333, 3.039e-7
0.334, 3.064e-7
0.335, 3.098e-7
0.336, 3.112e-7
0.337, 3.148e-7
0.338, 3.158e-7
0.339, 3.190e-7
0.340, 3.209e-7
0.341, 3.230e-7
0.342, 3.247e-7
0.343, 3.276e-7
0.344, 3.285e-7
0.345, 3.314e-7
0.346, 3.323e-7
0.347, 3.352e-7
0.348, 3.366e-7
0.349, 3.384e-7
0.350, 3.395e-7
0.351, 3.417e-7
0.352, 3.422e-7
0.353, 3.450e-7
0.354, 3.454e-7
0.355, 3.472e-7
0.356, 3.486e-7
0.357, 3.496e-7
0.358, 3.508e-7
0.359, 3.528e-7
0.360, 3.530e-7
0.361, 3.553e-7
0.362, 3.551e-7
0.363, 3.571e-7
0.364, 3.578e-7
0.365, 3.590e-7
0.366, 3.597e-7
0.367, 3.617e-7
0.368, 3.611e-7
0.369, 3.632e-7
0.370, 3.633e-7
0.371, 3.646e-7
0.372, 3.653e-7
0.373, 3.660e-7
0.374, 3.662e-7
0.375, 3.679e-7
0.376, 3.676e-7
0.377, 3.693e-7
0.378, 3.692e-7
0.379, 3.703e-7
0.380, 3.709e-7
0.381, 3.713e-7
0.382, 3.715e-7
0.383, 3.731e-7
0.384, 3.726e-7
0.385, 3.746e-7
0.386, 3.742e-7
0.387, 3.753e-7
0.388, 3.755e-7
0.389, 3.760e-7
0.390, 3.760e-7
0.391, 3.774e-7
0.392, 3.770e-7
0.393, 3.785e-7
0.394, 3.776e-7
0.395, 3.790e-7
0.396, 3.788e-7
0.397, 3.796e-7
0.398, 3.798e-7
0.399, 3.808e-7
0.400, 3.799e-7
0.401, 3.815e-7
0.402, 3.810e-7
0.403, 3.821e-7
0.404, 3.822e-7
0.405, 3.826e-7
0.406, 3.823e-7
0.407, 3.835e-7
0.408, 3.827e-7
0.409, 3.842e-7
0.410, 3.845e-7
0.411, 3.850e-7
0.412, 3.848e-7
0.413, 3.852e-7
0.414, 3.849e-7
0.415, 3.861e-7
0.416, 3.851e-7
0.417, 3.864e-7
0.418, 3.858e-7
0.419, 3.867e-7
0.420, 3.866e-7
0.421, 3.871e-7
0.422, 3.869e-7
0.423, 3.880e-7
0.424, 3.871e-7
0.425, 3.886e-7
0.426, 3.877e-7
0.427, 3.887e-7
0.428, 3.887e-7
0.429, 3.890e-7
0.430, 3.889e-7
0.431, 3.899e-7
0.432, 3.887e-7
0.433, 3.904e-7
0.434, 3.894e-7
0.435, 3.907e-7
0.436, 3.905e-7
0.437, 3.909e-7
0.438, 3.909e-7
0.439, 3.918e-7
0.440, 3.910e-7
0.441, 3.926e-7
0.442, 3.917e-7
0.443, 3.927e-7
0.444, 3.926e-7
0.445, 3.930e-7
0.446, 3.930e-7
0.447, 3.938e-7
0.448, 3.932e-7
0.449, 3.948e-7
0.450, 3.942e-7
0.451, 3.950e-7
0.452, 3.952e-7
0.453, 3.957e-7
0.454, 3.954e-7
0.455, 3.968e-7
0.456, 3.960e-7
0.457, 3.977e-7
0.458, 3.966e-7
0.459, 3.977e-7
0.460, 3.979e-7
0.461, 3.986e-7
0.462, 3.986e-7
0.463, 3.999e-7
0.464, 3.991e-7
0.465, 4.006e-7
0.466, 4.003e-7
0.467, 4.010e-7
0.468, 4.012e-7
0.469, 4.017e-7
0.470, 4.017e-7
0.471, 4.031e-7
0.472, 4.025e-7
0.473, 4.043e-7
0.474, 4.038e-7
0.475, 4.048e-7
0.476, 4.050e-7
0.477, 4.054e-7
0.478, 4.061e-7
0.479, 4.073e-7
0.480, 4.066e-7
0.481, 4.082e-7
0.482, 4.079e-7
0.483, 4.089e-7
0.484, 4.093e-7
0.485, 4.100e-7
0.486, 4.102e-7
0.487, 4.115e-7
0.488, 4.112e-7
0.489, 4.131e-7
0.490, 4.123e-7
0.491, 4.139e-7
0.492, 4.139e-7
0.493, 4.148e-7
0.494, 4.150e-7
0.495, 4.167e-7
0.496, 4.159e-7
0.497, 4.177e-7
0.498, 4.174e-7
0.499, 4.191e-7
0.500, 4.193e-7
0.501, 4.203e-7
0.502, 4.203e-7
0.503, 4.224e-7
0.504, 4.217e-7
0.505, 4.237e-7
0.506, 4.234e-7
0.507, 4.250e-7
0.508, 4.254e-7
0.509, 4.261e-7
0.510, 4.267e-7
0.511, 4.283e-7
0.512, 4.290e-7
0.513, 4.308e-7
0.514, 4.304e-7
0.515, 4.319e-7
0.516, 4.323e-7
0.517, 4.333e-7
0.518, 4.338e-7
0.519, 4.359e-7
0.520, 4.356e-7
0.521, 4.375e-7
0.522, 4.374e-7
0.523, 4.390e-7
0.524, 4.398e-7
0.525, 4.411e-7
0.526, 4.416e-7
0.527, 4.432e-7
0.528, 4.429e-7
0.529, 4.452e-7
0.530, 4.450e-7
0.531, 4.469e-7
0.532, 4.478e-7
0.533, 4.490e-7
0.534, 4.495e-7
0.535, 4.512e-7
0.536, 4.513e-7
0.537, 4.537e-7
0.538, 4.538e-7
0.539, 4.559e-7
0.540, 4.567e-7
0.541, 4.578e-7
0.542, 4.588e-7
0.543, 4.608e-7
0.544, 4.607e-7
0.545, 4.633e-7
0.546, 4.635e-7
0.547, 4.655e-7
0.548, 4.661e-7
0.549, 4.677e-7
0.550, 4.686e-7
0.551, 4.711e-7
0.552, 4.712e-7
0.553, 4.739e-7
0.554, 4.740e-7
0.555, 4.762e-7
0.556, 4.775e-7
0.557, 4.786e-7
0.558, 4.802e-7
0.559, 4.824e-7
0.560, 4.825e-7
0.561, 4.855e-7
0.562, 4.860e-7
0.563, 4.885e-7
0.564, 4.898e-7
0.565, 4.917e-7
0.566, 4.923e-7
0.567, 4.950e-7
0.568, 4.957e-7
0.569, 4.986e-7
0.570, 4.991e-7
0.571, 5.017e-7
0.572, 5.034e-7
0.573, 5.050e-7
0.574, 5.067e-7
0.575, 5.095e-7
0.576, 5.102e-7
0.577, 5.132e-7
0.578, 5.144e-7
0.579, 5.170e-7
0.580, 5.189e-7
0.581, 5.209e-7
0.582, 5.227e-7
0.583, 5.258e-7
0.584, 5.270e-7
0.585, 5.307e-7
0.586, 5.319e-7
0.587, 5.347e-7
0.588, 5.372e-7
0.589, 5.396e-7
0.590, 5.418e-7
0.591, 5.453e-7
0.592, 5.463e-7
0.593, 5.504e-7
0.594, 5.520e-7
0.595, 5.553e-7
0.596, 5.579e-7
0.597, 5.610e-7
0.598, 5.635e-7
0.599, 5.671e-7
0.600, 5.685e-7
0.601, 5.731e-7
0.602, 5.756e-7
0.603, 5.799e-7
0.604, 5.831e-7
0.605, 5.867e-7
0.606, 5.901e-7
0.607, 5.940e-7
0.608, 5.968e-7
0.609, 6.018e-7
0.610, 6.047e-7
0.611, 6.093e-7
0.612, 6.130e-7
0.613, 6.174e-7
0.614, 6.217e-7
0.615, 6.269e-7
0.616, 6.301e-7
0.617, 6.360e-7
0.618, 6.393e-7
0.619, 6.451e-7
0.620, 6.497e-7
0.621, 6.546e-7
0.622, 6.596e-7
0.623, 6.658e-7
0.624, 6.703e-7
0.625, 6.771e-7
0.626, 6.820e-7
0.627, 6.888e-7
0.628, 6.946e-7
0.629, 7.009e-7
0.630, 7.071e-7
0.631, 7.145e-7
0.632, 7.202e-7
0.633, 7.289e-7
0.634, 7.352e-7
0.635, 7.434e-7
0.636, 7.508e-7
0.637, 7.586e-7
0.638, 7.667e-7
0.639, 7.762e-7
0.640, 7.833e-7
0.641, 7.937e-7
0.642, 8.023e-7
0.643, 8.129e-7
0.644, 8.218e-7
0.645, 8.321e-7
0.646, 8.422e-7
0.647, 8.541e-7
0.648, 8.642e-7
0.649, 8.769e-7
0.650, 8.875e-7
0.651, 9.002e-7
0.652, 9.133e-7
0.653, 9.262e-7
0.654, 9.399e-7
0.655, 9.541e-7
0.656, 9.676e-7
0.657, 9.839e-7
0.658, 9.984e-7
0.659, 1.015e-6
0.660, 1.031e-6
0.661, 1.048e-6
0.662, 1.065e-6
0.663, 1.084e-6
0.664, 1.102e-6
0.665, 1.123e-6
0.666, 1.141e-6
0.667, 1.162e-6
0.668, 1.183e-6
0.669, 1.204e-6
0.670, 1.227e-6
0.671, 1.251e-6
0.672, 1.274e-6
0.673, 1.301e-6
0.674, 1.325e-6
0.675, 1.352e-6
0.676, 1.380e-6
0.677, 1.407e-6
0.678, 1.438e-6
0.679, 1.467e-6
0.680, 1.498e-6
0.681, 1.532e-6
0.682, 1.563e-6
0.683, 1.598e-6
0.684, 1.634e-6
0.685, 1.669e-6
0.686, 1.708e-6
0.687, 1.746e-6
0.688, 1.784e-6
0.689, 1.826e-6
0.690, 1.867e-6
0.691, 1.911e-6
0.692, 1.957e-6
0.693, 2.002e-6
0.694, 2.052e-6
0.695, 2.100e-6
0.696, 2.151e-6
0.697, 2.204e-6
0.698, 2.257e-6
0.699, 2.312e-6
0.700, 2.370e-6
0.701, 2.427e-6
0.702, 2.488e-6
0.703, 2.549e-6
0.704, 2.613e-6
0.705, 2.679e-6
0.706, 2.745e-6
0.707, 2.814e-6
0.708, 2.887e-6
0.709, 2.958e-6
0.710, 3.035e-6
0.711, 3.109e-6
0.712, 3.187e-6
0.713, 3.268e-6
0.714, 3.348e-6
0.715, 3.431e-6
0.716, 3.519e-6
0.717, 3.610e-6
0.718, 3.702e-6
0.719, 3.793e-6
0.720, 3.887e-6
0.721, 3.983e-6
0.722, 4.081e-6
0.723, 4.180e-6
0.724, 4.283e-6
0.725, 4.387e-6
0.726, 4.496e-6
0.727, 4.603e-6
0.728, 4.713e-6
0.729, 4.825e-6
0.730, 4.937e-6
0.731, 5.055e-6
0.732, 5.176e-6
0.733, 5.294e-6
0.734, 5.418e-6
0.735, 5.539e-6
0.736, 5.669e-6
0.737, 5.795e-6
0.738, 5.924e-6
0.739, 6.054e-6
0.740, 6.187e-6
0.741, 6.320e-6
0.742, 6.459e-6
0.743, 6.592e-6
0.744, 6.731e-6
0.745, 6.874e-6
0.746, 7.015e-6
0.747, 7.157e-6
0.748, 7.300e-6
0.749, 7.441e-6
0.750, 7.590e-6
0.751, 7.734e-6
0.752, 7.883e-6
0.753, 8.029e-6
0.754, 8.176e-6
0.755, 8.326e-6
0.756, 8.479e-6
0.757, 8.626e-6
0.758, 8.780e-6
0.759, 8.926e-6
0.760, 9.076e-6
0.761, 9.225e-6
0.762, 9.372e-6
0.763, 9.520e-6
0.764, 9.669e-6
0.765, 9.811e-6
0.766, 9.965e-6
0.767, 1.011e-5
0.768, 1.025e-5
0.769, 1.040e-5
0.770, 1.054e-5
0.771, 1.068e-5
0.772, 1.082e-5
0.773, 1.095e-5
0.774, 1.108e-5
0.775, 1.121e-5
0.776, 1.135e-5
0.777, 1.147e-5
0.778, 1.159e-5
0.779, 1.172e-5
0.780, 1.185e-5
0.781, 1.196e-5
0.782, 1.208e-5
0.783, 1.219e-5
0.784, 1.230e-5
0.785, 1.241e-5
0.786, 1.251e-5
0.787, 1.261e-5
0.788, 1.271e-5
0.789, 1.280e-5
0.790, 1.290e-5
0.791, 1.298e-5
0.792, 1.307e-5
0.793, 1.315e-5
0.794, 1.322e-5
0.795, 1.329e-5
0.796, 1.336e-5
0.797, 1.342e-5
0.798, 1.349e-5
0.799, 1.354e-5
0.800, 1.360e-5
0.801, 1.364e-5
0.802, 1.369e-5
0.803, 1.373e-5
0.804, 1.377e-5
0.805, 1.379e-5
0.806, 1.383e-5
0.807, 1.385e-5
0.808, 1.387e-5
0.809, 1.389e-5
0.810, 1.391e-5
0.811, 1.392e-5
0.812, 1.392e-5
0.813, 1.392e-5
0.814, 1.392e-5
0.815, 1.391e-5
0.816, 1.391e-5
0.817, 1.390e-5
0.818, 1.389e-5
0.819, 1.387e-5
0.820, 1.387e-5
0.821, 1.384e-5
0.822, 1.382e-5
0.823, 1.378e-5
0.824, 1.376e-5
0.825, 1.372e-5
0.826, 1.369e-5
0.827, 1.365e-5
0.828, 1.361e-5
0.829, 1.357e-5
0.830, 1.353e-5
0.831, 1.348e-5
0.832, 1.344e-5
0.833, 1.339e-5
0.834, 1.334e-5
0.835, 1.329e-5
0.836, 1.324e-5
0.837, 1.319e-5
0.838, 1.314e-5
0.839, 1.309e-5
0.840, 1.303e-5
0.841, 1.298e-5
0.842, 1.292e-5
0.843, 1.287e-5
0.844, 1.281e-5
0.845, 1.276e-5
0.846, 1.270e-5
0.847, 1.264e-5
0.848, 1.259e-5
0.849, 1.253e-5
0.850, 1.247e-5
0.851, 1.242e-5
0.852, 1.236e-5
0.853, 1.230e-5
0.854, 1.224e-5
0.855, 1.219e-5
0.856, 1.213e-5
0.857, 1.207e-5
0.858, 1.202e-5
0.859, 1.196e-5
0.860, 1.191e-5
0.861, 1.185e-5
0.862, 1.180e-5
0.863, 1.174e-5
0.864, 1.169e-5
0.865, 1.164e-5
0.866, 1.158e-5
0.867, 1.153e-5
0.868, 1.148e-5
0.869, 1.143e-5
0.870, 1.138e-5
0.871, 1.133e-5
0.872, 1.128e-5
0.873, 1.124e-5
0.874, 1.119e-5
0.875, 1.114e-5
0.876, 1.109e-5
0.877, 1.105e-5
0.878, 1.100e-5
0.879, 1.096e-5
0.880, 1.091e-5
0.881, 1.087e-5
0.882, 1.083e-5
0.883, 1.078e-5
0.884, 1.074e-5
0.885, 1.070e-5
0.886, 1.066e-5
0.887, 1.062e-5
0.888, 1.058e-5
0.889, 1.054e-5
0.890, 1.050e-5
0.891, 1.047e-5
0.892, 1.043e-5
0.893, 1.039e-5
0.894, 1.036e-5
0.895, 1.032e-5
0.896, 1.029e-5
0.897, 1.025e-5
0.898, 1.022e-5
0.899, 1.019e-5
0.900, 1.015e-5
0.901, 1.012e-5
0.902, 1.009e-5
0.903, 1.006e-5
0.904, 1.003e-5
0.905, 1.000e-5
0.906, 9.970e-6
0.907, 9.941e-6
0.908, 9.912e-6
0.909, 9.884e-6
0.910, 9.857e-6
0.911, 9.830e-6
0.912, 9.802e-6
0.913, 9.776e-6
0.914, 9.750e-6
0.915, 9.725e-6
0.916, 9.700e-6
0.917, 9.676e-6
0.918, 9.652e-6
0.919, 9.630e-6
0.920, 9.606e-6
0.921, 9.585e-6
0.922, 9.563e-6
0.923, 9.541e-6
0.924, 9.520e-6
0.925, 9.498e-6
0.926, 9.478e-6
0.927, 9.457e-6
0.928, 9.437e-6
0.929, 9.419e-6
0.930, 9.398e-6
0.931, 9.380e-6
0.932, 9.362e-6
0.933, 9.344e-6
0.934, 9.327e-6
0.935, 9.311e-6
0.936, 9.292e-6
0.937, 9.276e-6
0.938, 9.257e-6
0.939, 9.242e-6
0.940, 9.227e-6
0.941, 9.211e-6
0.942, 9.196e-6
0.943, 9.183e-6
0.944, 9.167e-6
0.945, 9.154e-6
0.946, 9.140e-6
0.947, 9.126e-6
0.948, 9.113e-6
0.949, 9.099e-6
0.950, 9.086e-6
0.951, 9.073e-6
0.952, 9.060e-6
0.953, 9.049e-6
0.954, 9.037e-6
0.955, 9.027e-6
0.956, 9.016e-6
0.957, 9.004e-6
0.958, 8.994e-6
0.959, 8.985e-6
0.960, 8.973e-6
0.961, 8.964e-6
0.962, 8.953e-6
0.963, 8.945e-6
0.964, 8.935e-6
0.965, 8.926e-6
0.966, 8.917e-6
0.967, 8.910e-6
0.968, 8.903e-6
0.969, 8.897e-6
0.970, 8.888e-6
0.971, 8.881e-6
0.972, 8.874e-6
0.973, 8.865e-6
0.974, 8.858e-6
0.975, 8.852e-6
0.976, 8.844e-6
0.977, 8.837e-6
0.978, 8.832e-6
0.979, 8.828e-6
0.980, 8.823e-6
0.981, 8.818e-6
0.982, 8.813e-6
0.983, 8.809e-6
0.984, 8.803e-6
0.985, 8.799e-6
0.986, 8.792e-6
0.987, 8.788e-6
0.988, 8.783e-6
0.989, 8.780e-6
0.990, 8.776e-6
0.991, 8.774e-6
0.992, 8.770e-6
0.993, 8.770e-6
0.994, 8.767e-6
0.995, 8.765e-6
0.996, 8.762e-6
0.997, 8.759e-6
0.998, 8.756e-6
0.999, 8.754e-6
1.000, 8.752e-6
1.001, 8.751e-6
1.002, 8.749e-6
1.003, 8.749e-6
1.004, 8.748e-6
1.005, 8.748e-6
1.006, 8.748e-6
1.007, 8.748e-6
1.008, 8.747e-6
1.009, 8.747e-6
1.010, 8.745e-6
1.011, 8.746e-6
1.012, 8.746e-6
1.013, 8.746e-6
1.014, 8.747e-6
1.015, 8.749e-6
1.016, 8.750e-6
1.017, 8.753e-6
1.018, 8.753e-6
1.019, 8.757e-6
1.020, 8.759e-6
1.021, 8.759e-6
1.022, 8.761e-6
1.023, 8.763e-6
1.024, 8.765e-6
1.025, 8.768e-6
1.026, 8.770e-6
1.027, 8.775e-6
1.028, 8.778e-6
1.029, 8.781e-6
1.030, 8.785e-6
1.031, 8.790e-6
1.032, 8.793e-6
1.033, 8.798e-6
1.034, 8.801e-6
1.035, 8.806e-6
1.036, 8.810e-6
1.037, 8.813e-6
1.038, 8.819e-6
1.039, 8.824e-6
1.040, 8.828e-6
1.041, 8.835e-6
1.042, 8.841e-6
1.043, 8.848e-6
1.044, 8.854e-6
1.045, 8.859e-6
1.046, 8.866e-6
1.047, 8.873e-6
1.048, 8.878e-6
1.049, 8.886e-6
1.050, 8.892e-6
1.051, 8.899e-6
1.052, 8.907e-6
1.053, 8.913e-6
1.054, 8.921e-6
1.055, 8.930e-6
1.056, 8.937e-6
1.057, 8.947e-6
1.058, 8.955e-6
1.059, 8.964e-6
1.060, 8.973e-6
1.061, 8.981e-6
1.062, 8.990e-6
1.063, 9.000e-6
1.064, 9.009e-6
1.065, 9.019e-6
1.066, 9.027e-6
1.067, 9.037e-6
1.068, 9.048e-6
1.069, 9.059e-6
1.070, 9.070e-6
1.071, 9.082e-6
1.072, 9.092e-6
1.073, 9.105e-6
1.074, 9.116e-6
1.075, 9.128e-6
1.076, 9.139e-6
1.077, 9.151e-6
1.078, 9.163e-6
1.079, 9.176e-6
1.080, 9.188e-6
1.081, 9.202e-6
1.082, 9.214e-6
1.083, 9.229e-6
1.084, 9.242e-6
1.085, 9.256e-6
1.086, 9.270e-6
1.087, 9.284e-6
1.088, 9.298e-6
1.089, 9.313e-6
1.090, 9.327e-6
1.091, 9.342e-6
1.092, 9.358e-6
1.093, 9.372e-6
1.094, 9.389e-6
1.095, 9.405e-6
1.096, 9.421e-6
1.097, 9.438e-6
1.098, 9.455e-6
1.099, 9.473e-6
1.100, 9.490e-6
1.101, 9.507e-6
1.102, 9.525e-6
1.103, 9.543e-6
1.104, 9.561e-6
1.105, 9.581e-6
1.106, 9.598e-6
1.107, 9.619e-6
1.108, 9.640e-6
1.109, 9.659e-6
1.110, 9.680e-6
1.111, 9.701e-6
1.112, 9.721e-6
1.113, 9.743e-6
1.114, 9.764e-6
1.115, 9.786e-6
1.116, 9.808e-6
1.117, 9.830e-6
1.118, 9.854e-6
1.119, 9.877e-6
1.120, 9.900e-6
1.121, 9.926e-6
1.122, 9.949e-6
1.123, 9.975e-6
1.124, 1.000e-5
1.125, 1.003e-5
1.126, 1.005e-5
1.127, 1.008e-5
1.128, 1.011e-5
1.129, 1.013e-5
1.130, 1.016e-5
1.131, 1.019e-5
1.132, 1.022e-5
1.133, 1.024e-5
1.134, 1.027e-5
1.135, 1.030e-5
1.136, 1.033e-5
1.137, 1.036e-5
1.138, 1.039e-5
1.139, 1.043e-5
1.140, 1.046e-5
1.141, 1.049e-5
1.142, 1.052e-5
1.143, 1.055e-5
1.144, 1.059e-5
1.145, 1.062e-5
1.146, 1.066e-5
1.147, 1.069e-5
1.148, 1.073e-5
1.149, 1.076e-5
1.150, 1.080e-5
1.151, 1.084e-5
1.152, 1.087e-5
1.153, 1.091e-5
1.154, 1.095e-5
1.155, 1.099e-5
1.156, 1.103e-5
1.157, 1.107e-5
1.158, 1.111e-5
1.159, 1.115e-5
1.160, 1.119e-5
1.161, 1.123e-5
1.162, 1.128e-5
1.163, 1.132e-5
1.164, 1.136e-5
1.165, 1.141e-5
1.166, 1.145e-5
1.167, 1.150e-5
1.168, 1.154e-5
1.169, 1.159e-5
1.170, 1.164e-5
1.171, 1.168e-5
1.172, 1.173e-5
1.173, 1.178e-5
1.174, 1.183e-5
1.175, 1.188e-5
1.176, 1.193e-5
1.177, 1.198e-5
1.178, 1.204e-5
1.179, 1.209e-5
1.180, 1.214e-5
1.181, 1.220e-5
1.182, 1.225e-5
1.183, 1.231e-5
1.184, 1.236e-5
1.185, 1.242e-5
1.186, 1.248e-5
1.187, 1.253e-5
1.188, 1.259e-5
1.189, 1.265e-5
1.190, 1.271e-5
1.191, 1.277e-5
1.192, 1.283e-5
1.193, 1.289e-5
1.194, 1.295e-5
1.195, 1.302e-5
1.196, 1.308e-5
1.197, 1.314e-5
1.198, 1.321e-5
1.199, 1.327e-5
1.200, 1.334e-5
1.201, 1.341e-5
1.202, 1.347e-5
1.203, 1.354e-5
1.204, 1.361e-5
1.205, 1.368e-5
1.206, 1.375e-5
1.207, 1.382e-5
1.208, 1.389e-5
1.209, 1.396e-5
1.210, 1.403e-5
1.211, 1.411e-5
1.212, 1.418e-5
1.213, 1.425e-5
1.214, 1.433e-5
1.215, 1.440e-5
1.216, 1.448e-5
1.217, 1.456e-5
1.218, 1.463e-5
1.219, 1.471e-5
1.220, 1.479e-5
1.221, 1.487e-5
1.222, 1.495e-5
1.223, 1.503e-5
1.224, 1.511e-5
1.225, 1.520e-5
1.226, 1.528e-5
1.227, 1.536e-5
1.228, 1.545e-5
1.229, 1.553e-5
1.230, 1.562e-5
1.231, 1.570e-5
1.232, 1.579e-5
1.233, 1.587e-5
1.234, 1.596e-5
1.235, 1.605e-5
1.236, 1.614e-5
1.237, 1.623e-5
1.238, 1.632e-5
1.239, 1.641e-5
1.240, 1.650e-5
1.241, 1.659e-5
1.242, 1.669e-5
1.243, 1.678e-5
1.244, 1.688e-5
1.245, 1.697e-5
1.246, 1.707e-5
1.247, 1.716e-5
1.248, 1.726e-5
1.249, 1.736e-5
1.250, 1.745e-5
1.251, 1.755e-5
1.252, 1.765e-5
1.253, 1.775e-5
1.254, 1.785e-5
1.255, 1.795e-5
1.256, 1.805e-5
1.257, 1.816e-5
1.258, 1.826e-5
1.259, 1.837e-5
1.260, 1.847e-5
1.261, 1.857e-5
1.262, 1.868e-5
1.263, 1.878e-5
1.264, 1.889e-5
1.265, 1.900e-5
1.266, 1.910e-5
1.267, 1.921e-5
1.268, 1.932e-5
1.269, 1.943e-5
1.270, 1.954e-5
1.271, 1.965e-5
1.272, 1.976e-5
1.273, 1.987e-5
1.274, 1.998e-5
1.275, 2.010e-5
1.276, 2.021e-5
1.277, 2.032e-5
1.278, 2.043e-5
1.279, 2.055e-5
1.280, 2.066e-5
1.281, 2.077e-5
1.282, 2.088e-5
1.283, 2.100e-5
1.284, 2.111e-5
1.285, 2.106e-5
1.286, 2.106e-5
1.287, 2.118e-5
1.288, 2.130e-5
1.289, 2.142e-5
1.290, 2.155e-5
1.291, 2.168e-5
1.292, 2.180e-5
1.293, 2.193e-5
1.294, 2.206e-5
1.295, 2.218e-5
1.296, 2.231e-5
1.297, 2.244e-5
1.298, 2.257e-5
1.299, 2.271e-5
1.300, 2.274e-5
1.299, 2.239e-5
1.298, 2.198e-5
1.297, 2.159e-5
1.296, 2.122e-5
1.295, 2.086e-5
1.294, 2.052e-5
1.293, 2.019e-5
1.292, 1.987e-5
1.291, 1.956e-5
1.290, 1.927e-5
1.289, 1.897e-5
1.288, 1.869e-5
1.287, 1.841e-5
1.286, 1.814e-5
1.285, 1.787e-5
1.284, 1.761e-5
1.283, 1.736e-5
1.282, 1.712e-5
1.281, 1.688e-5
1.280, 1.664e-5
1.279, 1.641e-5
1.278, 1.618e-5
1.277, 1.596e-5
1.276, 1.575e-5
1.275, 1.554e-5
1.274, 1.533e-5
1.273, 1.513e-5
1.272, 1.493e-5
1.271, 1.473e-5
1.270, 1.454e-5
1.269, 1.436e-5
1.268, 1.418e-5
1.267, 1.400e-5
1.266, 1.382e-5
1.265, 1.365e-5
1.264, 1.348e-5
1.263, 1.331e-5
1.262, 1.315e-5
1.261, 1.299e-5
1.260, 1.283e-5
1.259, 1.267e-5
1.258, 1.252e-5
1.257, 1.238e-5
1.256, 1.223e-5
1.255, 1.208e-5
1.254, 1.194e-5
1.253, 1.180e-5
1.252, 1.166e-5
1.251, 1.153e-5
1.250, 1.140e-5
1.249, 1.127e-5
1.248, 1.114e-5
1.247, 1.101e-5
1.246, 1.089e-5
1.245, 1.077e-5
1.244, 1.065e-5
1.243, 1.053e-5
1.242, 1.042e-5
1.241, 1.030e-5
1.240, 1.019e-5
1.239, 1.008e-5
1.238, 9.972e-6
1.237, 9.864e-6
1.236, 9.759e-6
1.235, 9.656e-6
1.234, 9.554e-6
1.233, 9.456e-6
1.232, 9.357e-6
1.231, 9.260e-6
1.230, 9.165e-6
1.229, 9.068e-6
1.228, 8.974e-6
1.227, 8.885e-6
1.226, 8.794e-6
1.225, 8.706e-6
1.224, 8.619e-6
1.223, 8.532e-6
1.222, 8.449e-6
1.221, 8.365e-6
1.220, 8.283e-6
1.219, 8.202e-6
1.218, 8.122e-6
1.217, 8.044e-6
1.216, 7.967e-6
1.215, 7.890e-6
1.214, 7.815e-6
1.213, 7.741e-6
1.212, 7.668e-6
1.211, 7.596e-6
1.210, 7.524e-6
1.209, 7.456e-6
1.208, 7.387e-6
1.207, 7.319e-6
1.206, 7.252e-6
1.205, 7.185e-6
1.204, 7.119e-6
1.203, 7.055e-6
1.202, 6.992e-6
1.201, 6.931e-6
1.200, 6.869e-6
1.199, 6.808e-6
1.198, 6.748e-6
1.197, 6.689e-6
1.196, 6.630e-6
1.195, 6.574e-6
1.194, 6.516e-6
1.193, 6.462e-6
1.192, 6.406e-6
1.191, 6.353e-6
1.190, 6.299e-6
1.189, 6.246e-6
1.188, 6.194e-6
1.187, 6.143e-6
1.186, 6.091e-6
1.185, 6.041e-6
1.184, 5.991e-6
1.183, 5.943e-6
1.182, 5.895e-6
1.181, 5.848e-6
1.180, 5.801e-6
1.179, 5.755e-6
1.178, 5.708e-6
1.177, 5.664e-6
1.176, 5.619e-6
1.175, 5.576e-6
1.174, 5.533e-6
1.173, 5.491e-6
1.172, 5.448e-6
1.171, 5.408e-6
1.170, 5.366e-6
1.169, 5.327e-6
1.168, 5.287e-6
1.167, 5.247e-6
1.166, 5.208e-6
1.165, 5.170e-6
1.164, 5.131e-6
1.163, 5.095e-6
1.162, 5.057e-6
1.161, 5.022e-6
1.160, 4.986e-6
1.159, 4.951e-6
1.158, 4.916e-6
1.157, 4.882e-6
1.156, 4.849e-6
1.155, 4.817e-6
1.154, 4.782e-6
1.153, 4.750e-6
1.152, 4.717e-6
1.151, 4.686e-6
1.150, 4.655e-6
1.149, 4.624e-6
1.148, 4.593e-6
1.147, 4.564e-6
1.146, 4.532e-6
1.145, 4.504e-6
1.144, 4.474e-6
1.143, 4.445e-6
1.142, 4.417e-6
1.141, 4.389e-6
1.140, 4.361e-6
1.139, 4.334e-6
1.138, 4.306e-6
1.137, 4.281e-6
1.136, 4.254e-6
1.135, 4.228e-6
1.134, 4.203e-6
1.133, 4.178e-6
1.132, 4.152e-6
1.131, 4.129e-6
1.130, 4.103e-6
1.129, 4.080e-6
1.128, 4.055e-6
1.127, 4.032e-6
1.126, 4.008e-6
1.125, 3.985e-6
1.124, 3.962e-6
1.123, 3.942e-6
1.122, 3.918e-6
1.121, 3.898e-6
1.120, 3.876e-6
1.119, 3.855e-6
1.118, 3.835e-6
1.117, 3.814e-6
1.116, 3.793e-6
1.115, 3.774e-6
1.114, 3.753e-6
1.113, 3.734e-6
1.112, 3.715e-6
1.111, 3.696e-6
1.110, 3.677e-6
1.109, 3.659e-6
1.108, 3.640e-6
1.107, 3.623e-6
1.106, 3.604e-6
1.105, 3.587e-6
1.104, 3.569e-6
1.103, 3.552e-6
1.102, 3.535e-6
1.101, 3.518e-6
1.100, 3.502e-6
1.099, 3.487e-6
1.098, 3.470e-6
1.097, 3.455e-6
1.096, 3.439e-6
1.095, 3.424e-6
1.094, 3.409e-6
1.093, 3.394e-6
1.092, 3.378e-6
1.091, 3.364e-6
1.090, 3.350e-6
1.089, 3.336e-6
1.088, 3.322e-6
1.087, 3.310e-6
1.086, 3.297e-6
1.085, 3.284e-6
1.084, 3.270e-6
1.083, 3.259e-6
1.082, 3.245e-6
1.081, 3.233e-6
1.080, 3.220e-6
1.079, 3.208e-6
1.078, 3.197e-6
1.077, 3.185e-6
1.076, 3.173e-6
1.075, 3.163e-6
1.074, 3.151e-6
1.073, 3.141e-6
1.072, 3.129e-6
1.071, 3.118e-6
1.070, 3.108e-6
1.069, 3.097e-6
1.068, 3.087e-6
1.067, 3.078e-6
1.066, 3.067e-6
1.065, 3.059e-6
1.064, 3.049e-6
1.063, 3.040e-6
1.062, 3.031e-6
1.061, 3.021e-6
1.060, 3.012e-6
1.059, 3.004e-6
1.058, 2.994e-6
1.057, 2.986e-6
1.056, 2.977e-6
1.055, 2.969e-6
1.054, 2.961e-6
1.053, 2.954e-6
1.052, 2.945e-6
1.051, 2.938e-6
1.050, 2.929e-6
1.049, 2.922e-6
1.048, 2.913e-6
1.047, 2.906e-6
1.046, 2.898e-6
1.045, 2.891e-6
1.044, 2.883e-6
1.043, 2.877e-6
1.042, 2.870e-6
1.041, 2.864e-6
1.040, 2.856e-6
1.039, 2.849e-6
1.038, 2.843e-6
1.037, 2.836e-6
1.036, 2.829e-6
1.035, 2.823e-6
1.034, 2.815e-6
1.033, 2.809e-6
1.032, 2.803e-6
1.031, 2.796e-6
1.030, 2.791e-6
1.029, 2.785e-6
1.028, 2.778e-6
1.027, 2.773e-6
1.026, 2.766e-6
1.025, 2.760e-6
1.024, 2.754e-6
1.023, 2.748e-6
1.022, 2.742e-6
1.021, 2.736e-6
1.020, 2.729e-6
1.019, 2.725e-6
1.018, 2.718e-6
1.017, 2.714e-6
1.016, 2.708e-6
1.015, 2.703e-6
1.014, 2.697e-6
1.013, 2.692e-6
1.012, 2.685e-6
1.011, 2.680e-6
1.010, 2.673e-6
1.009, 2.668e-6
1.008, 2.662e-6
1.007, 2.657e-6
1.006, 2.652e-6
1.005, 2.647e-6
1.004, 2.641e-6
1.003, 2.637e-6
1.002, 2.630e-6
1.001, 2.626e-6
1.000, 2.620e-6
0.999, 2.614e-6
0.998, 2.608e-6
0.997, 2.603e-6
0.996, 2.597e-6
0.995, 2.593e-6
0.994, 2.587e-6
0.993, 2.582e-6
0.992, 2.577e-6
0.991, 2.572e-6
0.990, 2.567e-6
0.989, 2.562e-6
0.988, 2.556e-6
0.987, 2.551e-6
0.986, 2.545e-6
0.985, 2.540e-6
0.984, 2.535e-6
0.983, 2.529e-6
0.982, 2.524e-6
0.981, 2.519e-6
0.980, 2.513e-6
0.979, 2.509e-6
0.978, 2.504e-6
0.977, 2.499e-6
0.976, 2.493e-6
0.975, 2.489e-6
0.974, 2.483e-6
0.973, 2.478e-6
0.972, 2.472e-6
0.971, 2.468e-6
0.970, 2.462e-6
0.969, 2.457e-6
0.968, 2.452e-6
0.967, 2.447e-6
0.966, 2.442e-6
0.965, 2.437e-6
0.964, 2.431e-6
0.963, 2.427e-6
0.962, 2.421e-6
0.961, 2.415e-6
0.960, 2.410e-6
0.959, 2.404e-6
0.958, 2.399e-6
0.957, 2.394e-6
0.956, 2.388e-6
0.955, 2.384e-6
0.954, 2.378e-6
0.953, 2.373e-6
0.952, 2.367e-6
0.951, 2.362e-6
0.950, 2.356e-6
0.949, 2.351e-6
0.948, 2.345e-6
0.947, 2.340e-6
0.946, 2.334e-6
0.945, 2.329e-6
0.944, 2.323e-6
0.943, 2.317e-6
0.942, 2.311e-6
0.941, 2.306e-6
0.940, 2.300e-6
0.939, 2.295e-6
0.938, 2.287e-6
0.937, 2.283e-6
0.936, 2.276e-6
0.935, 2.270e-6
0.934, 2.263e-6
0.933, 2.258e-6
0.932, 2.251e-6
0.931, 2.246e-6
0.930, 2.238e-6
0.929, 2.232e-6
0.928, 2.225e-6
0.927, 2.219e-6
0.926, 2.212e-6
0.925, 2.205e-6
0.924, 2.198e-6
0.923, 2.191e-6
0.922, 2.183e-6
0.921, 2.175e-6
0.920, 2.168e-6
0.919, 2.161e-6
0.918, 2.154e-6
0.917, 2.146e-6
0.916, 2.137e-6
0.915, 2.130e-6
0.914, 2.121e-6
0.913, 2.113e-6
0.912, 2.105e-6
0.911, 2.096e-6
0.910, 2.087e-6
0.909, 2.078e-6
0.908, 2.068e-6
0.907, 2.060e-6
0.906, 2.050e-6
0.905, 2.041e-6
0.904, 2.031e-6
0.903, 2.021e-6
0.902, 2.011e-6
0.901, 2.001e-6
0.900, 1.989e-6
0.899, 1.979e-6
0.898, 1.967e-6
0.897, 1.956e-6
0.896, 1.944e-6
0.895, 1.932e-6
0.894, 1.920e-6
0.893, 1.908e-6
0.892, 1.894e-6
0.891, 1.882e-6
0.890, 1.868e-6
0.889, 1.855e-6
0.888, 1.840e-6
0.887, 1.825e-6
0.886, 1.811e-6
0.885, 1.795e-6
0.884, 1.779e-6
0.883, 1.764e-6
0.882, 1.747e-6
0.881, 1.731e-6
0.880, 1.714e-6
0.879, 1.696e-6
0.878, 1.677e-6
0.877, 1.659e-6
0.876, 1.639e-6
0.875, 1.620e-6
0.874, 1.598e-6
0.873, 1.578e-6
0.872, 1.555e-6
0.871, 1.532e-6
0.870, 1.510e-6
0.869, 1.487e-6
0.868, 1.462e-6
0.867, 1.438e-6
0.866, 1.411e-6
0.865, 1.386e-6
0.864, 1.359e-6
0.863, 1.330e-6
0.862, 1.303e-6
0.861, 1.272e-6
0.860, 1.242e-6
0.859, 1.211e-6
0.858, 1.178e-6
0.857, 1.146e-6
0.856, 1.112e-6
0.855, 1.077e-6
0.854, 1.042e-6
0.853, 1.004e-6
0.852, 9.656e-7
0.851, 9.268e-7
0.850, 8.862e-7
0.849, 8.454e-7
0.848, 8.030e-7
0.847, 7.589e-7
0.846, 7.146e-7
0.845, 6.678e-7
0.844, 6.211e-7
0.843, 5.723e-7
0.842, 5.216e-7
0.841, 4.706e-7
0.840, 4.173e-7
0.839, 3.624e-7
0.838, 3.086e-7
0.837, 2.501e-7
0.836, 1.938e-7
0.835, 1.346e-7
0.834, 7.243e-8
0.833, 9.401e-9
0.832, -5.472e-8
0.831, -1.225e-7
0.830, -1.899e-7
0.829, -2.607e-7
0.828, -3.312e-7
0.827, -4.057e-7
0.826, -4.806e-7
0.825, -5.571e-7
0.824, -6.353e-7
0.823, -7.169e-7
0.822, -7.953e-7
0.821, -8.812e-7
0.820, -9.675e-7
0.819, -1.061e-6
0.818, -1.152e-6
0.817, -1.241e-6
0.816, -1.332e-6
0.815, -1.426e-6
0.814, -1.520e-6
0.813, -1.620e-6
0.812, -1.718e-6
0.811, -1.821e-6
0.810, -1.925e-6
0.809, -2.029e-6
0.808, -2.137e-6
0.807, -2.248e-6
0.806, -2.356e-6
0.805, -2.471e-6
0.804, -2.584e-6
0.803, -2.701e-6
0.802, -2.817e-6
0.801, -2.935e-6
0.800, -3.055e-6
0.799, -3.177e-6
0.798, -3.298e-6
0.797, -3.426e-6
0.796, -3.550e-6
0.795, -3.679e-6
0.794, -3.808e-6
0.793, -3.938e-6
0.792, -4.069e-6
0.791, -4.203e-6
0.790, -4.330e-6
0.789, -4.466e-6
0.788, -4.599e-6
0.787, -4.737e-6
0.786, -4.875e-6
0.785, -5.010e-6
0.784, -5.146e-6
0.783, -5.285e-6
0.782, -5.420e-6
0.781, -5.562e-6
0.780, -5.699e-6
0.779, -5.838e-6
0.778, -5.976e-6
0.777, -6.113e-6
0.776, -6.251e-6
0.775, -6.390e-6
0.774, -6.524e-6
0.773, -6.662e-6
0.772, -6.796e-6
0.771, -6.931e-6
0.770, -7.064e-6
0.769, -7.198e-6
0.768, -7.329e-6
0.767, -7.460e-6
0.766, -7.585e-6
0.765, -7.713e-6
0.764, -7.835e-6
0.763, -7.960e-6
0.762, -8.081e-6
0.761, -8.202e-6
0.760, -8.318e-6
0.759, -8.435e-6
0.758, -8.545e-6
0.757, -8.658e-6
0.756, -8.765e-6
0.755, -8.876e-6
0.754, -8.978e-6
0.753, -9.077e-6
0.752, -9.170e-6
0.751, -9.265e-6
0.750, -9.352e-6
0.749, -9.444e-6
0.748, -9.526e-6
0.747, -9.607e-6
0.746, -9.685e-6
0.745, -9.760e-6
0.744, -9.831e-6
0.743, -9.899e-6
0.742, -9.958e-6
0.741, -1.002e-5
0.740, -1.007e-5
0.739, -1.012e-5
0.738, -1.017e-5
0.737, -1.022e-5
0.736, -1.026e-5
0.735, -1.030e-5
0.734, -1.033e-5
0.733, -1.036e-5
0.732, -1.039e-5
0.731, -1.041e-5
0.730, -1.043e-5
0.729, -1.045e-5
0.728, -1.046e-5
0.727, -1.047e-5
0.726, -1.047e-5
0.725, -1.047e-5
0.724, -1.047e-5
0.723, -1.046e-5
0.722, -1.045e-5
0.721, -1.044e-5
0.720, -1.043e-5
0.719, -1.041e-5
0.718, -1.039e-5
0.717, -1.037e-5
0.716, -1.034e-5
0.715, -1.031e-5
0.714, -1.028e-5
0.713, -1.025e-5
0.712, -1.021e-5
0.711, -1.017e-5
0.710, -1.013e-5
0.709, -1.009e-5
0.708, -1.005e-5
0.707, -1.000e-5
0.706, -9.956e-6
0.705, -9.910e-6
0.704, -9.860e-6
0.703, -9.811e-6
0.702, -9.757e-6
0.701, -9.706e-6
0.700, -9.651e-6
0.699, -9.598e-6
0.698, -9.541e-6
0.697, -9.484e-6
0.696, -9.430e-6
0.695, -9.372e-6
0.694, -9.313e-6
0.693, -9.258e-6
0.692, -9.200e-6
0.691, -9.141e-6
0.690, -9.084e-6
0.689, -9.025e-6
0.688, -8.966e-6
0.687, -8.908e-6
0.686, -8.848e-6
0.685, -8.791e-6
0.684, -8.731e-6
0.683, -8.673e-6
0.682, -8.615e-6
0.681, -8.557e-6
0.680, -8.500e-6
0.679, -8.444e-6
0.678, -8.386e-6
0.677, -8.331e-6
0.676, -8.274e-6
0.675, -8.217e-6
0.674, -8.163e-6
0.673, -8.109e-6
0.672, -8.054e-6
0.671, -8.000e-6
0.670, -7.947e-6
0.669, -7.894e-6
0.668, -7.841e-6
0.667, -7.790e-6
0.666, -7.740e-6
0.665, -7.689e-6
0.664, -7.639e-6
0.663, -7.590e-6
0.662, -7.542e-6
0.661, -7.494e-6
0.660, -7.447e-6
0.659, -7.399e-6
0.658, -7.353e-6
0.657, -7.306e-6
0.656, -7.261e-6
0.655, -7.217e-6
0.654, -7.171e-6
0.653, -7.128e-6
0.652, -7.085e-6
0.651, -7.041e-6
0.650, -6.999e-6
0.649, -6.958e-6
0.648, -6.917e-6
0.647, -6.877e-6
0.646, -6.836e-6
0.645, -6.797e-6
0.644, -6.758e-6
0.643, -6.718e-6
0.642, -6.681e-6
0.641, -6.643e-6
0.640, -6.607e-6
0.639, -6.570e-6
0.638, -6.534e-6
0.637, -6.499e-6
0.636, -6.464e-6
0.635, -6.429e-6
0.634, -6.395e-6
0.633, -6.361e-6
0.632, -6.328e-6
0.631, -6.295e-6
0.630, -6.262e-6
0.629, -6.231e-6
0.628, -6.201e-6
0.627, -6.169e-6
0.626, -6.139e-6
0.625, -6.108e-6
0.624, -6.078e-6
0.623, -6.049e-6
0.622, -6.020e-6
0.621, -5.992e-6
0.620, -5.964e-6
0.619, -5.935e-6
0.618, -5.908e-6
0.617, -5.880e-6
0.616, -5.854e-6
0.615, -5.828e-6
0.614, -5.802e-6
0.613, -5.776e-6
0.612, -5.751e-6
0.611, -5.724e-6
0.610, -5.700e-6
0.609, -5.675e-6
0.608, -5.651e-6
0.607, -5.627e-6
0.606, -5.602e-6
0.605, -5.579e-6
0.604, -5.556e-6
0.603, -5.533e-6
0.602, -5.512e-6
0.601, -5.488e-6
0.600, -5.466e-6
0.599, -5.445e-6
0.598, -5.423e-6
0.597, -5.402e-6
0.596, -5.382e-6
0.595, -5.360e-6
0.594, -5.341e-6
0.593, -5.320e-6
0.592, -5.300e-6
0.591, -5.280e-6
0.590, -5.260e-6
0.589, -5.241e-6
0.588, -5.222e-6
0.587, -5.202e-6
0.586, -5.184e-6
0.585, -5.165e-6
0.584, -5.147e-6
0.583, -5.129e-6
0.582, -5.111e-6
0.581, -5.093e-6
0.580, -5.077e-6
0.579, -5.058e-6
0.578, -5.042e-6
0.577, -5.025e-6
0.576, -5.008e-6
0.575, -4.992e-6
0.574, -4.975e-6
0.573, -4.959e-6
0.572, -4.943e-6
0.571, -4.927e-6
0.570, -4.912e-6
0.569, -4.896e-6
0.568, -4.881e-6
0.567, -4.865e-6
0.566, -4.849e-6
0.565, -4.835e-6
0.564, -4.820e-6
0.563, -4.805e-6
0.562, -4.791e-6
0.561, -4.776e-6
0.560, -4.762e-6
0.559, -4.748e-6
0.558, -4.734e-6
0.557, -4.720e-6
0.556, -4.707e-6
0.555, -4.692e-6
0.554, -4.680e-6
0.553, -4.666e-6
0.552, -4.653e-6
0.551, -4.640e-6
0.550, -4.627e-6
0.549, -4.614e-6
0.548, -4.602e-6
0.547, -4.589e-6
0.546, -4.577e-6
0.545, -4.564e-6
0.544, -4.552e-6
0.543, -4.540e-6
0.542, -4.528e-6
0.541, -4.516e-6
0.540, -4.505e-6
0.539, -4.493e-6
0.538, -4.482e-6
0.537, -4.470e-6
0.536, -4.459e-6
0.535, -4.448e-6
0.534, -4.437e-6
0.533, -4.426e-6
0.532, -4.416e-6
0.531, -4.404e-6
0.530, -4.394e-6
0.529, -4.383e-6
0.528, -4.372e-6
0.527, -4.362e-6
0.526, -4.351e-6
0.525, -4.341e-6
0.524, -4.331e-6
0.523, -4.320e-6
0.522, -4.310e-6
0.521, -4.300e-6
0.520, -4.290e-6
0.519, -4.280e-6
0.518, -4.270e-6
0.517, -4.261e-6
0.516, -4.252e-6
0.515, -4.242e-6
0.514, -4.234e-6
0.513, -4.224e-6
0.512, -4.216e-6
0.511, -4.206e-6
0.510, -4.196e-6
0.509, -4.187e-6
0.508, -4.178e-6
0.507, -4.168e-6
0.506, -4.160e-6
0.505, -4.151e-6
0.504, -4.143e-6
0.503, -4.134e-6
0.502, -4.126e-6
0.501, -4.117e-6
0.500, -4.109e-6
0.499, -4.101e-6
0.498, -4.093e-6
0.497, -4.084e-6
0.496, -4.075e-6
0.495, -4.066e-6
0.494, -4.058e-6
0.493, -4.050e-6
0.492, -4.043e-6
0.491, -4.035e-6
0.490, -4.028e-6
0.489, -4.020e-6
0.488, -4.012e-6
0.487, -4.005e-6
0.486, -3.997e-6
0.485, -3.989e-6
0.484, -3.982e-6
0.483, -3.974e-6
0.482, -3.967e-6
0.481, -3.959e-6
0.480, -3.952e-6
0.479, -3.945e-6
0.478, -3.938e-6
0.477, -3.931e-6
0.476, -3.925e-6
0.475, -3.917e-6
0.474, -3.911e-6
0.473, -3.904e-6
0.472, -3.897e-6
0.471, -3.890e-6
0.470, -3.883e-6
0.469, -3.877e-6
0.468, -3.871e-6
0.467, -3.863e-6
0.466, -3.858e-6
0.465, -3.851e-6
0.464, -3.845e-6
0.463, -3.839e-6
0.462, -3.832e-6
0.461, -3.826e-6
0.460, -3.821e-6
0.459, -3.814e-6
0.458, -3.808e-6
0.457, -3.801e-6
0.456, -3.795e-6
0.455, -3.789e-6
0.454, -3.783e-6
0.453, -3.777e-6
0.452, -3.772e-6
0.451, -3.765e-6
0.450, -3.760e-6
0.449, -3.754e-6
0.448, -3.749e-6
0.447, -3.744e-6
0.446, -3.738e-6
0.445, -3.732e-6
0.444, -3.726e-6
0.443, -3.721e-6
0.442, -3.716e-6
0.441, -3.709e-6
0.440, -3.704e-6
0.439, -3.699e-6
0.438, -3.694e-6
0.437, -3.689e-6
0.436, -3.684e-6
0.435, -3.679e-6
0.434, -3.675e-6
0.433, -3.669e-6
0.432, -3.663e-6
0.431, -3.658e-6
0.430, -3.653e-6
0.429, -3.648e-6
0.428, -3.643e-6
0.427, -3.638e-6
0.426, -3.634e-6
0.425, -3.629e-6
0.424, -3.624e-6
0.423, -3.621e-6
0.422, -3.616e-6
0.421, -3.611e-6
0.420, -3.607e-6
0.419, -3.601e-6
0.418, -3.597e-6
0.417, -3.592e-6
0.416, -3.587e-6
0.415, -3.583e-6
0.414, -3.578e-6
0.413, -3.574e-6
0.412, -3.570e-6
0.411, -3.566e-6
0.410, -3.563e-6
0.409, -3.559e-6
0.408, -3.555e-6
0.407, -3.551e-6
0.406, -3.546e-6
0.405, -3.541e-6
0.404, -3.537e-6
0.403, -3.533e-6
0.402, -3.529e-6
0.401, -3.525e-6
0.400, -3.521e-6
0.399, -3.518e-6
0.398, -3.514e-6
0.397, -3.510e-6
0.396, -3.507e-6
0.395, -3.503e-6
0.394, -3.499e-6
0.393, -3.495e-6
0.392, -3.491e-6
0.391, -3.488e-6
0.390, -3.484e-6
0.389, -3.480e-6
0.388, -3.477e-6
0.387, -3.473e-6
0.386, -3.470e-6
0.385, -3.467e-6
0.384, -3.464e-6
0.383, -3.461e-6
0.382, -3.456e-6
0.381, -3.453e-6
0.380, -3.450e-6
0.379, -3.446e-6
0.378, -3.443e-6
0.377, -3.439e-6
0.376, -3.436e-6
0.375, -3.433e-6
0.374, -3.430e-6
0.373, -3.427e-6
0.372, -3.425e-6
0.371, -3.421e-6
0.370, -3.418e-6
0.369, -3.415e-6
0.368, -3.412e-6
0.367, -3.409e-6
0.366, -3.406e-6
0.365, -3.403e-6
0.364, -3.400e-6
0.363, -3.397e-6
0.362, -3.395e-6
0.361, -3.392e-6
0.360, -3.389e-6
0.359, -3.387e-6
0.358, -3.384e-6
0.357, -3.381e-6
0.356, -3.379e-6
0.355, -3.375e-6
0.354, -3.373e-6
0.353, -3.370e-6
0.352, -3.367e-6
0.351, -3.365e-6
0.350, -3.362e-6
0.349, -3.360e-6
0.348, -3.357e-6
0.347, -3.355e-6
0.346, -3.353e-6
0.345, -3.350e-6
0.344, -3.347e-6
0.343, -3.346e-6
0.342, -3.343e-6
0.341, -3.341e-6
0.340, -3.338e-6
0.339, -3.336e-6
0.338, -3.334e-6
0.337, -3.331e-6
0.336, -3.329e-6
0.335, -3.328e-6
0.334, -3.325e-6
0.333, -3.323e-6
0.332, -3.322e-6
0.331, -3.319e-6
0.330, -3.317e-6
0.329, -3.315e-6
0.328, -3.313e-6
0.327, -3.311e-6
0.326, -3.308e-6
0.325, -3.307e-6
0.324, -3.304e-6
0.323, -3.302e-6
0.322, -3.301e-6
0.321, -3.299e-6
0.320, -3.297e-6
0.319, -3.296e-6
0.318, -3.293e-6
0.317, -3.292e-6
0.316, -3.290e-6
0.315, -3.288e-6
0.314, -3.286e-6
0.313, -3.285e-6
0.312, -3.283e-6
0.311, -3.282e-6
0.310, -3.279e-6
0.309, -3.278e-6
0.308, -3.277e-6
0.307, -3.276e-6
0.306, -3.275e-6
0.305, -3.273e-6
0.304, -3.271e-6
0.303, -3.270e-6
0.302, -3.268e-6
0.301, -3.267e-6
