Mar. 20, 2019   07:05:17
Cyclic Voltammetry
File: e:\sine_wave_volt_rucn6\text_copy\dc\dcrucn2-1.txt
Data Source:  Experiment
Instrument Model:  CHI760E
Header: 
Note: 

Init E (V) = 0.3
High E (V) = 1.3
Low E (V) = 0.3
Init P/N = P
Scan Rate (V/s) = 0.1
Segment = 2
Sample Interval (V) = 0.001
Quiet Time (sec) = 2
Sensitivity (A/V) = 1e-5

Segment 1:
Segment 2:

Potential/V, Current/A

0.300, 2.074e-7
0.301, 3.017e-7
0.302, 3.508e-7
0.303, 3.830e-7
0.304, 4.048e-7
0.305, 4.263e-7
0.306, 4.422e-7
0.307, 4.598e-7
0.308, 4.729e-7
0.309, 4.863e-7
0.310, 4.973e-7
0.311, 5.097e-7
0.312, 5.183e-7
0.313, 5.305e-7
0.314, 5.384e-7
0.315, 5.489e-7
0.316, 5.571e-7
0.317, 5.655e-7
0.318, 5.731e-7
0.319, 5.828e-7
0.320, 5.893e-7
0.321, 5.985e-7
0.322, 6.045e-7
0.323, 6.128e-7
0.324, 6.191e-7
0.325, 6.262e-7
0.326, 6.324e-7
0.327, 6.398e-7
0.328, 6.449e-7
0.329, 6.527e-7
0.330, 6.572e-7
0.331, 6.647e-7
0.332, 6.700e-7
0.333, 6.764e-7
0.334, 6.818e-7
0.335, 6.886e-7
0.336, 6.927e-7
0.337, 6.995e-7
0.338, 7.038e-7
0.339, 7.105e-7
0.340, 7.152e-7
0.341, 7.210e-7
0.342, 7.258e-7
0.343, 7.324e-7
0.344, 7.357e-7
0.345, 7.428e-7
0.346, 7.467e-7
0.347, 7.526e-7
0.348, 7.571e-7
0.349, 7.619e-7
0.350, 7.669e-7
0.351, 7.727e-7
0.352, 7.762e-7
0.353, 7.826e-7
0.354, 7.862e-7
0.355, 7.920e-7
0.356, 7.962e-7
0.357, 8.006e-7
0.358, 8.053e-7
0.359, 8.112e-7
0.360, 8.143e-7
0.361, 8.206e-7
0.362, 8.232e-7
0.363, 8.289e-7
0.364, 8.332e-7
0.365, 8.379e-7
0.366, 8.417e-7
0.367, 8.476e-7
0.368, 8.502e-7
0.369, 8.563e-7
0.370, 8.596e-7
0.371, 8.651e-7
0.372, 8.689e-7
0.373, 8.738e-7
0.374, 8.780e-7
0.375, 8.828e-7
0.376, 8.857e-7
0.377, 8.917e-7
0.378, 8.945e-7
0.379, 8.996e-7
0.380, 9.035e-7
0.381, 9.078e-7
0.382, 9.115e-7
0.383, 9.169e-7
0.384, 9.202e-7
0.385, 9.255e-7
0.386, 9.283e-7
0.387, 9.331e-7
0.388, 9.373e-7
0.389, 9.409e-7
0.390, 9.448e-7
0.391, 9.497e-7
0.392, 9.527e-7
0.393, 9.582e-7
0.394, 9.608e-7
0.395, 9.657e-7
0.396, 9.695e-7
0.397, 9.737e-7
0.398, 9.778e-7
0.399, 9.824e-7
0.400, 9.852e-7
0.401, 9.900e-7
0.402, 9.930e-7
0.403, 9.977e-7
0.404, 1.001e-6
0.405, 1.005e-6
0.406, 1.009e-6
0.407, 1.014e-6
0.408, 1.016e-6
0.409, 1.022e-6
0.410, 1.026e-6
0.411, 1.030e-6
0.412, 1.033e-6
0.413, 1.037e-6
0.414, 1.040e-6
0.415, 1.045e-6
0.416, 1.048e-6
0.417, 1.053e-6
0.418, 1.056e-6
0.419, 1.059e-6
0.420, 1.064e-6
0.421, 1.066e-6
0.422, 1.071e-6
0.423, 1.075e-6
0.424, 1.078e-6
0.425, 1.082e-6
0.426, 1.085e-6
0.427, 1.089e-6
0.428, 1.093e-6
0.429, 1.096e-6
0.430, 1.100e-6
0.431, 1.104e-6
0.432, 1.107e-6
0.433, 1.112e-6
0.434, 1.115e-6
0.435, 1.119e-6
0.436, 1.123e-6
0.437, 1.126e-6
0.438, 1.130e-6
0.439, 1.133e-6
0.440, 1.136e-6
0.441, 1.141e-6
0.442, 1.143e-6
0.443, 1.147e-6
0.444, 1.152e-6
0.445, 1.154e-6
0.446, 1.158e-6
0.447, 1.162e-6
0.448, 1.165e-6
0.449, 1.169e-6
0.450, 1.172e-6
0.451, 1.176e-6
0.452, 1.180e-6
0.453, 1.182e-6
0.454, 1.186e-6
0.455, 1.190e-6
0.456, 1.193e-6
0.457, 1.197e-6
0.458, 1.200e-6
0.459, 1.204e-6
0.460, 1.208e-6
0.461, 1.211e-6
0.462, 1.215e-6
0.463, 1.219e-6
0.464, 1.222e-6
0.465, 1.226e-6
0.466, 1.229e-6
0.467, 1.233e-6
0.468, 1.237e-6
0.469, 1.240e-6
0.470, 1.244e-6
0.471, 1.248e-6
0.472, 1.250e-6
0.473, 1.255e-6
0.474, 1.258e-6
0.475, 1.262e-6
0.476, 1.266e-6
0.477, 1.269e-6
0.478, 1.273e-6
0.479, 1.276e-6
0.480, 1.280e-6
0.481, 1.284e-6
0.482, 1.287e-6
0.483, 1.291e-6
0.484, 1.296e-6
0.485, 1.298e-6
0.486, 1.303e-6
0.487, 1.306e-6
0.488, 1.310e-6
0.489, 1.314e-6
0.490, 1.317e-6
0.491, 1.321e-6
0.492, 1.326e-6
0.493, 1.328e-6
0.494, 1.333e-6
0.495, 1.337e-6
0.496, 1.340e-6
0.497, 1.344e-6
0.498, 1.348e-6
0.499, 1.351e-6
0.500, 1.356e-6
0.501, 1.359e-6
0.502, 1.364e-6
0.503, 1.368e-6
0.504, 1.372e-6
0.505, 1.376e-6
0.506, 1.380e-6
0.507, 1.383e-6
0.508, 1.389e-6
0.509, 1.391e-6
0.510, 1.396e-6
0.511, 1.399e-6
0.512, 1.405e-6
0.513, 1.409e-6
0.514, 1.412e-6
0.515, 1.416e-6
0.516, 1.421e-6
0.517, 1.424e-6
0.518, 1.429e-6
0.519, 1.432e-6
0.520, 1.436e-6
0.521, 1.440e-6
0.522, 1.445e-6
0.523, 1.448e-6
0.524, 1.454e-6
0.525, 1.457e-6
0.526, 1.462e-6
0.527, 1.466e-6
0.528, 1.470e-6
0.529, 1.474e-6
0.530, 1.478e-6
0.531, 1.482e-6
0.532, 1.488e-6
0.533, 1.490e-6
0.534, 1.496e-6
0.535, 1.500e-6
0.536, 1.504e-6
0.537, 1.508e-6
0.538, 1.513e-6
0.539, 1.517e-6
0.540, 1.523e-6
0.541, 1.525e-6
0.542, 1.532e-6
0.543, 1.535e-6
0.544, 1.540e-6
0.545, 1.544e-6
0.546, 1.549e-6
0.547, 1.553e-6
0.548, 1.559e-6
0.549, 1.561e-6
0.550, 1.568e-6
0.551, 1.571e-6
0.552, 1.576e-6
0.553, 1.581e-6
0.554, 1.586e-6
0.555, 1.589e-6
0.556, 1.596e-6
0.557, 1.599e-6
0.558, 1.605e-6
0.559, 1.609e-6
0.560, 1.614e-6
0.561, 1.619e-6
0.562, 1.624e-6
0.563, 1.628e-6
0.564, 1.635e-6
0.565, 1.639e-6
0.566, 1.645e-6
0.567, 1.649e-6
0.568, 1.655e-6
0.569, 1.659e-6
0.570, 1.665e-6
0.571, 1.669e-6
0.572, 1.676e-6
0.573, 1.680e-6
0.574, 1.687e-6
0.575, 1.691e-6
0.576, 1.696e-6
0.577, 1.702e-6
0.578, 1.708e-6
0.579, 1.712e-6
0.580, 1.719e-6
0.581, 1.722e-6
0.582, 1.729e-6
0.583, 1.733e-6
0.584, 1.740e-6
0.585, 1.745e-6
0.586, 1.752e-6
0.587, 1.756e-6
0.588, 1.763e-6
0.589, 1.767e-6
0.590, 1.774e-6
0.591, 1.779e-6
0.592, 1.785e-6
0.593, 1.791e-6
0.594, 1.798e-6
0.595, 1.803e-6
0.596, 1.810e-6
0.597, 1.815e-6
0.598, 1.822e-6
0.599, 1.828e-6
0.600, 1.835e-6
0.601, 1.842e-6
0.602, 1.849e-6
0.603, 1.854e-6
0.604, 1.863e-6
0.605, 1.867e-6
0.606, 1.876e-6
0.607, 1.881e-6
0.608, 1.889e-6
0.609, 1.896e-6
0.610, 1.904e-6
0.611, 1.910e-6
0.612, 1.918e-6
0.613, 1.924e-6
0.614, 1.934e-6
0.615, 1.940e-6
0.616, 1.949e-6
0.617, 1.956e-6
0.618, 1.964e-6
0.619, 1.971e-6
0.620, 1.981e-6
0.621, 1.987e-6
0.622, 1.997e-6
0.623, 2.005e-6
0.624, 2.014e-6
0.625, 2.022e-6
0.626, 2.032e-6
0.627, 2.041e-6
0.628, 2.051e-6
0.629, 2.059e-6
0.630, 2.070e-6
0.631, 2.078e-6
0.632, 2.089e-6
0.633, 2.099e-6
0.634, 2.109e-6
0.635, 2.119e-6
0.636, 2.132e-6
0.637, 2.141e-6
0.638, 2.154e-6
0.639, 2.164e-6
0.640, 2.176e-6
0.641, 2.188e-6
0.642, 2.201e-6
0.643, 2.212e-6
0.644, 2.227e-6
0.645, 2.238e-6
0.646, 2.252e-6
0.647, 2.265e-6
0.648, 2.279e-6
0.649, 2.294e-6
0.650, 2.308e-6
0.651, 2.322e-6
0.652, 2.338e-6
0.653, 2.352e-6
0.654, 2.370e-6
0.655, 2.385e-6
0.656, 2.402e-6
0.657, 2.419e-6
0.658, 2.437e-6
0.659, 2.454e-6
0.660, 2.474e-6
0.661, 2.492e-6
0.662, 2.513e-6
0.663, 2.532e-6
0.664, 2.553e-6
0.665, 2.575e-6
0.666, 2.596e-6
0.667, 2.618e-6
0.668, 2.643e-6
0.669, 2.664e-6
0.670, 2.690e-6
0.671, 2.714e-6
0.672, 2.740e-6
0.673, 2.767e-6
0.674, 2.794e-6
0.675, 2.821e-6
0.676, 2.851e-6
0.677, 2.879e-6
0.678, 2.910e-6
0.679, 2.941e-6
0.680, 2.975e-6
0.681, 3.009e-6
0.682, 3.041e-6
0.683, 3.077e-6
0.684, 3.114e-6
0.685, 3.149e-6
0.686, 3.189e-6
0.687, 3.227e-6
0.688, 3.268e-6
0.689, 3.308e-6
0.690, 3.349e-6
0.691, 3.394e-6
0.692, 3.441e-6
0.693, 3.486e-6
0.694, 3.535e-6
0.695, 3.584e-6
0.696, 3.635e-6
0.697, 3.687e-6
0.698, 3.740e-6
0.699, 3.797e-6
0.700, 3.854e-6
0.701, 3.910e-6
0.702, 3.971e-6
0.703, 4.032e-6
0.704, 4.095e-6
0.705, 4.162e-6
0.706, 4.227e-6
0.707, 4.296e-6
0.708, 4.367e-6
0.709, 4.436e-6
0.710, 4.512e-6
0.711, 4.588e-6
0.712, 4.665e-6
0.713, 4.746e-6
0.714, 4.826e-6
0.715, 4.909e-6
0.716, 4.995e-6
0.717, 5.085e-6
0.718, 5.176e-6
0.719, 5.268e-6
0.720, 5.361e-6
0.721, 5.457e-6
0.722, 5.553e-6
0.723, 5.655e-6
0.724, 5.758e-6
0.725, 5.862e-6
0.726, 5.970e-6
0.727, 6.078e-6
0.728, 6.188e-6
0.729, 6.303e-6
0.730, 6.416e-6
0.731, 6.534e-6
0.732, 6.655e-6
0.733, 6.775e-6
0.734, 6.901e-6
0.735, 7.026e-6
0.736, 7.153e-6
0.737, 7.284e-6
0.738, 7.413e-6
0.739, 7.549e-6
0.740, 7.684e-6
0.741, 7.820e-6
0.742, 7.961e-6
0.743, 8.098e-6
0.744, 8.242e-6
0.745, 8.391e-6
0.746, 8.533e-6
0.747, 8.682e-6
0.748, 8.830e-6
0.749, 8.979e-6
0.750, 9.133e-6
0.751, 9.286e-6
0.752, 9.436e-6
0.753, 9.591e-6
0.754, 9.741e-6
0.755, 9.901e-6
0.756, 1.006e-5
0.757, 1.022e-5
0.758, 1.038e-5
0.759, 1.053e-5
0.760, 1.069e-5
0.761, 1.085e-5
0.762, 1.101e-5
0.763, 1.117e-5
0.764, 1.132e-5
0.765, 1.148e-5
0.766, 1.164e-5
0.767, 1.179e-5
0.768, 1.195e-5
0.769, 1.211e-5
0.770, 1.226e-5
0.771, 1.242e-5
0.772, 1.257e-5
0.773, 1.271e-5
0.774, 1.287e-5
0.775, 1.301e-5
0.776, 1.315e-5
0.777, 1.330e-5
0.778, 1.344e-5
0.779, 1.358e-5
0.780, 1.371e-5
0.781, 1.384e-5
0.782, 1.398e-5
0.783, 1.410e-5
0.784, 1.423e-5
0.785, 1.435e-5
0.786, 1.447e-5
0.787, 1.459e-5
0.788, 1.470e-5
0.789, 1.481e-5
0.790, 1.492e-5
0.791, 1.501e-5
0.792, 1.511e-5
0.793, 1.521e-5
0.794, 1.530e-5
0.795, 1.539e-5
0.796, 1.547e-5
0.797, 1.555e-5
0.798, 1.562e-5
0.799, 1.570e-5
0.800, 1.576e-5
0.801, 1.583e-5
0.802, 1.588e-5
0.803, 1.594e-5
0.804, 1.599e-5
0.805, 1.603e-5
0.806, 1.608e-5
0.807, 1.611e-5
0.808, 1.615e-5
0.809, 1.618e-5
0.810, 1.620e-5
0.811, 1.623e-5
0.812, 1.625e-5
0.813, 1.626e-5
0.814, 1.627e-5
0.815, 1.628e-5
0.816, 1.628e-5
0.817, 1.628e-5
0.818, 1.628e-5
0.819, 1.628e-5
0.820, 1.628e-5
0.821, 1.626e-5
0.822, 1.625e-5
0.823, 1.623e-5
0.824, 1.621e-5
0.825, 1.619e-5
0.826, 1.616e-5
0.827, 1.613e-5
0.828, 1.610e-5
0.829, 1.607e-5
0.830, 1.603e-5
0.831, 1.600e-5
0.832, 1.596e-5
0.833, 1.592e-5
0.834, 1.588e-5
0.835, 1.584e-5
0.836, 1.580e-5
0.837, 1.575e-5
0.838, 1.571e-5
0.839, 1.566e-5
0.840, 1.562e-5
0.841, 1.557e-5
0.842, 1.552e-5
0.843, 1.547e-5
0.844, 1.542e-5
0.845, 1.537e-5
0.846, 1.532e-5
0.847, 1.527e-5
0.848, 1.522e-5
0.849, 1.517e-5
0.850, 1.511e-5
0.851, 1.506e-5
0.852, 1.501e-5
0.853, 1.496e-5
0.854, 1.491e-5
0.855, 1.486e-5
0.856, 1.481e-5
0.857, 1.476e-5
0.858, 1.471e-5
0.859, 1.466e-5
0.860, 1.461e-5
0.861, 1.456e-5
0.862, 1.451e-5
0.863, 1.446e-5
0.864, 1.441e-5
0.865, 1.436e-5
0.866, 1.432e-5
0.867, 1.427e-5
0.868, 1.422e-5
0.869, 1.418e-5
0.870, 1.413e-5
0.871, 1.409e-5
0.872, 1.404e-5
0.873, 1.400e-5
0.874, 1.396e-5
0.875, 1.392e-5
0.876, 1.387e-5
0.877, 1.383e-5
0.878, 1.379e-5
0.879, 1.375e-5
0.880, 1.371e-5
0.881, 1.367e-5
0.882, 1.363e-5
0.883, 1.360e-5
0.884, 1.356e-5
0.885, 1.352e-5
0.886, 1.348e-5
0.887, 1.345e-5
0.888, 1.341e-5
0.889, 1.338e-5
0.890, 1.334e-5
0.891, 1.331e-5
0.892, 1.328e-5
0.893, 1.324e-5
0.894, 1.321e-5
0.895, 1.318e-5
0.896, 1.315e-5
0.897, 1.312e-5
0.898, 1.309e-5
0.899, 1.306e-5
0.900, 1.303e-5
0.901, 1.300e-5
0.902, 1.297e-5
0.903, 1.294e-5
0.904, 1.292e-5
0.905, 1.289e-5
0.906, 1.286e-5
0.907, 1.284e-5
0.908, 1.281e-5
0.909, 1.279e-5
0.910, 1.276e-5
0.911, 1.274e-5
0.912, 1.271e-5
0.913, 1.269e-5
0.914, 1.266e-5
0.915, 1.264e-5
0.916, 1.262e-5
0.917, 1.260e-5
0.918, 1.258e-5
0.919, 1.256e-5
0.920, 1.254e-5
0.921, 1.252e-5
0.922, 1.250e-5
0.923, 1.248e-5
0.924, 1.246e-5
0.925, 1.244e-5
0.926, 1.242e-5
0.927, 1.240e-5
0.928, 1.238e-5
0.929, 1.237e-5
0.930, 1.235e-5
0.931, 1.233e-5
0.932, 1.232e-5
0.933, 1.230e-5
0.934, 1.228e-5
0.935, 1.227e-5
0.936, 1.225e-5
0.937, 1.224e-5
0.938, 1.222e-5
0.939, 1.221e-5
0.940, 1.220e-5
0.941, 1.218e-5
0.942, 1.217e-5
0.943, 1.216e-5
0.944, 1.214e-5
0.945, 1.213e-5
0.946, 1.212e-5
0.947, 1.211e-5
0.948, 1.210e-5
0.949, 1.209e-5
0.950, 1.207e-5
0.951, 1.207e-5
0.952, 1.205e-5
0.953, 1.205e-5
0.954, 1.204e-5
0.955, 1.203e-5
0.956, 1.202e-5
0.957, 1.201e-5
0.958, 1.200e-5
0.959, 1.199e-5
0.960, 1.198e-5
0.961, 1.198e-5
0.962, 1.197e-5
0.963, 1.196e-5
0.964, 1.196e-5
0.965, 1.195e-5
0.966, 1.194e-5
0.967, 1.194e-5
0.968, 1.193e-5
0.969, 1.193e-5
0.970, 1.192e-5
0.971, 1.192e-5
0.972, 1.191e-5
0.973, 1.191e-5
0.974, 1.191e-5
0.975, 1.190e-5
0.976, 1.190e-5
0.977, 1.190e-5
0.978, 1.189e-5
0.979, 1.189e-5
0.980, 1.189e-5
0.981, 1.189e-5
0.982, 1.188e-5
0.983, 1.188e-5
0.984, 1.188e-5
0.985, 1.188e-5
0.986, 1.188e-5
0.987, 1.188e-5
0.988, 1.188e-5
0.989, 1.188e-5
0.990, 1.188e-5
0.991, 1.188e-5
0.992, 1.188e-5
0.993, 1.188e-5
0.994, 1.188e-5
0.995, 1.188e-5
0.996, 1.188e-5
0.997, 1.188e-5
0.998, 1.188e-5
0.999, 1.189e-5
1.000, 1.189e-5
1.001, 1.189e-5
1.002, 1.189e-5
1.003, 1.190e-5
1.004, 1.190e-5
1.005, 1.190e-5
1.006, 1.191e-5
1.007, 1.191e-5
1.008, 1.191e-5
1.009, 1.192e-5
1.010, 1.192e-5
1.011, 1.192e-5
1.012, 1.193e-5
1.013, 1.193e-5
1.014, 1.194e-5
1.015, 1.194e-5
1.016, 1.195e-5
1.017, 1.196e-5
1.018, 1.196e-5
1.019, 1.197e-5
1.020, 1.197e-5
1.021, 1.198e-5
1.022, 1.199e-5
1.023, 1.199e-5
1.024, 1.200e-5
1.025, 1.201e-5
1.026, 1.201e-5
1.027, 1.202e-5
1.028, 1.203e-5
1.029, 1.204e-5
1.030, 1.205e-5
1.031, 1.205e-5
1.032, 1.206e-5
1.033, 1.207e-5
1.034, 1.208e-5
1.035, 1.209e-5
1.036, 1.210e-5
1.037, 1.211e-5
1.038, 1.212e-5
1.039, 1.213e-5
1.040, 1.214e-5
1.041, 1.215e-5
1.042, 1.216e-5
1.043, 1.217e-5
1.044, 1.218e-5
1.045, 1.219e-5
1.046, 1.220e-5
1.047, 1.221e-5
1.048, 1.222e-5
1.049, 1.224e-5
1.050, 1.225e-5
1.051, 1.226e-5
1.052, 1.228e-5
1.053, 1.229e-5
1.054, 1.230e-5
1.055, 1.232e-5
1.056, 1.233e-5
1.057, 1.234e-5
1.058, 1.236e-5
1.059, 1.237e-5
1.060, 1.239e-5
1.061, 1.240e-5
1.062, 1.242e-5
1.063, 1.243e-5
1.064, 1.245e-5
1.065, 1.246e-5
1.066, 1.248e-5
1.067, 1.249e-5
1.068, 1.251e-5
1.069, 1.253e-5
1.070, 1.254e-5
1.071, 1.256e-5
1.072, 1.258e-5
1.073, 1.260e-5
1.074, 1.261e-5
1.075, 1.263e-5
1.076, 1.265e-5
1.077, 1.267e-5
1.078, 1.269e-5
1.079, 1.270e-5
1.080, 1.272e-5
1.081, 1.274e-5
1.082, 1.276e-5
1.083, 1.278e-5
1.084, 1.280e-5
1.085, 1.282e-5
1.086, 1.285e-5
1.087, 1.287e-5
1.088, 1.289e-5
1.089, 1.291e-5
1.090, 1.293e-5
1.091, 1.295e-5
1.092, 1.298e-5
1.093, 1.300e-5
1.094, 1.302e-5
1.095, 1.305e-5
1.096, 1.307e-5
1.097, 1.309e-5
1.098, 1.312e-5
1.099, 1.314e-5
1.100, 1.317e-5
1.101, 1.319e-5
1.102, 1.322e-5
1.103, 1.324e-5
1.104, 1.327e-5
1.105, 1.329e-5
1.106, 1.332e-5
1.107, 1.335e-5
1.108, 1.337e-5
1.109, 1.340e-5
1.110, 1.343e-5
1.111, 1.346e-5
1.112, 1.348e-5
1.113, 1.351e-5
1.114, 1.354e-5
1.115, 1.357e-5
1.116, 1.360e-5
1.117, 1.363e-5
1.118, 1.366e-5
1.119, 1.369e-5
1.120, 1.372e-5
1.121, 1.375e-5
1.122, 1.379e-5
1.123, 1.382e-5
1.124, 1.385e-5
1.125, 1.388e-5
1.126, 1.392e-5
1.127, 1.395e-5
1.128, 1.398e-5
1.129, 1.402e-5
1.130, 1.405e-5
1.131, 1.409e-5
1.132, 1.412e-5
1.133, 1.416e-5
1.134, 1.419e-5
1.135, 1.423e-5
1.136, 1.426e-5
1.137, 1.430e-5
1.138, 1.434e-5
1.139, 1.437e-5
1.140, 1.441e-5
1.141, 1.445e-5
1.142, 1.449e-5
1.143, 1.453e-5
1.144, 1.457e-5
1.145, 1.461e-5
1.146, 1.465e-5
1.147, 1.469e-5
1.148, 1.473e-5
1.149, 1.477e-5
1.150, 1.482e-5
1.151, 1.486e-5
1.152, 1.490e-5
1.153, 1.494e-5
1.154, 1.499e-5
1.155, 1.503e-5
1.156, 1.508e-5
1.157, 1.512e-5
1.158, 1.517e-5
1.159, 1.521e-5
1.160, 1.526e-5
1.161, 1.531e-5
1.162, 1.535e-5
1.163, 1.540e-5
1.164, 1.545e-5
1.165, 1.550e-5
1.166, 1.555e-5
1.167, 1.560e-5
1.168, 1.565e-5
1.169, 1.570e-5
1.170, 1.575e-5
1.171, 1.580e-5
1.172, 1.585e-5
1.173, 1.590e-5
1.174, 1.596e-5
1.175, 1.601e-5
1.176, 1.607e-5
1.177, 1.612e-5
1.178, 1.618e-5
1.179, 1.623e-5
1.180, 1.629e-5
1.181, 1.634e-5
1.182, 1.640e-5
1.183, 1.646e-5
1.184, 1.652e-5
1.185, 1.658e-5
1.186, 1.664e-5
1.187, 1.670e-5
1.188, 1.676e-5
1.189, 1.682e-5
1.190, 1.688e-5
1.191, 1.694e-5
1.192, 1.700e-5
1.193, 1.707e-5
1.194, 1.713e-5
1.195, 1.719e-5
1.196, 1.726e-5
1.197, 1.732e-5
1.198, 1.739e-5
1.199, 1.745e-5
1.200, 1.752e-5
1.201, 1.759e-5
1.202, 1.766e-5
1.203, 1.773e-5
1.204, 1.780e-5
1.205, 1.787e-5
1.206, 1.794e-5
1.207, 1.801e-5
1.208, 1.808e-5
1.209, 1.816e-5
1.210, 1.823e-5
1.211, 1.830e-5
1.212, 1.838e-5
1.213, 1.845e-5
1.214, 1.853e-5
1.215, 1.860e-5
1.216, 1.868e-5
1.217, 1.876e-5
1.218, 1.884e-5
1.219, 1.891e-5
1.220, 1.900e-5
1.221, 1.907e-5
1.222, 1.916e-5
1.223, 1.924e-5
1.224, 1.932e-5
1.225, 1.940e-5
1.226, 1.949e-5
1.227, 1.957e-5
1.228, 1.966e-5
1.229, 1.974e-5
1.230, 1.983e-5
1.231, 1.992e-5
1.232, 2.001e-5
1.233, 2.010e-5
1.234, 2.018e-5
1.235, 2.027e-5
1.236, 2.037e-5
1.237, 2.045e-5
1.238, 2.055e-5
1.239, 2.064e-5
1.240, 2.073e-5
1.241, 2.083e-5
1.242, 2.092e-5
1.243, 2.101e-5
1.244, 2.111e-5
1.245, 2.121e-5
1.246, 2.131e-5
1.247, 2.140e-5
1.248, 2.150e-5
1.249, 2.160e-5
1.250, 2.170e-5
1.251, 2.180e-5
1.252, 2.190e-5
1.253, 2.200e-5
1.254, 2.211e-5
1.255, 2.221e-5
1.256, 2.232e-5
1.257, 2.242e-5
1.258, 2.253e-5
1.259, 2.263e-5
1.260, 2.274e-5
1.261, 2.285e-5
1.262, 2.296e-5
1.263, 2.307e-5
1.264, 2.318e-5
1.265, 2.329e-5
1.266, 2.340e-5
1.267, 2.351e-5
1.268, 2.362e-5
1.269, 2.374e-5
1.270, 2.385e-5
1.271, 2.397e-5
1.272, 2.409e-5
1.273, 2.420e-5
1.274, 2.432e-5
1.275, 2.444e-5
1.276, 2.456e-5
1.277, 2.468e-5
1.278, 2.481e-5
1.279, 2.493e-5
1.280, 2.505e-5
1.281, 2.518e-5
1.282, 2.530e-5
1.283, 2.543e-5
1.284, 2.556e-5
1.285, 2.568e-5
1.286, 2.582e-5
1.287, 2.595e-5
1.288, 2.608e-5
1.289, 2.621e-5
1.290, 2.634e-5
1.291, 2.648e-5
1.292, 2.661e-5
1.293, 2.674e-5
1.294, 2.688e-5
1.295, 2.702e-5
1.296, 2.716e-5
1.297, 2.730e-5
1.298, 2.744e-5
1.299, 2.758e-5
1.300, 2.761e-5
1.299, 2.718e-5
1.298, 2.666e-5
1.297, 2.618e-5
1.296, 2.571e-5
1.295, 2.526e-5
1.294, 2.483e-5
1.293, 2.442e-5
1.292, 2.401e-5
1.291, 2.362e-5
1.290, 2.325e-5
1.289, 2.288e-5
1.288, 2.252e-5
1.287, 2.217e-5
1.286, 2.184e-5
1.285, 2.150e-5
1.284, 2.118e-5
1.283, 2.087e-5
1.282, 2.056e-5
1.281, 2.026e-5
1.280, 1.997e-5
1.279, 1.968e-5
1.278, 1.941e-5
1.277, 1.913e-5
1.276, 1.886e-5
1.275, 1.860e-5
1.274, 1.835e-5
1.273, 1.810e-5
1.272, 1.785e-5
1.271, 1.761e-5
1.270, 1.738e-5
1.269, 1.715e-5
1.268, 1.692e-5
1.267, 1.670e-5
1.266, 1.648e-5
1.265, 1.627e-5
1.264, 1.606e-5
1.263, 1.586e-5
1.262, 1.566e-5
1.261, 1.546e-5
1.260, 1.527e-5
1.259, 1.508e-5
1.258, 1.489e-5
1.257, 1.471e-5
1.256, 1.453e-5
1.255, 1.435e-5
1.254, 1.418e-5
1.253, 1.401e-5
1.252, 1.384e-5
1.251, 1.368e-5
1.250, 1.352e-5
1.249, 1.336e-5
1.248, 1.320e-5
1.247, 1.305e-5
1.246, 1.290e-5
1.245, 1.275e-5
1.244, 1.260e-5
1.243, 1.246e-5
1.242, 1.232e-5
1.241, 1.218e-5
1.240, 1.204e-5
1.239, 1.191e-5
1.238, 1.178e-5
1.237, 1.165e-5
1.236, 1.152e-5
1.235, 1.139e-5
1.234, 1.127e-5
1.233, 1.115e-5
1.232, 1.103e-5
1.231, 1.091e-5
1.230, 1.079e-5
1.229, 1.068e-5
1.228, 1.056e-5
1.227, 1.045e-5
1.226, 1.034e-5
1.225, 1.024e-5
1.224, 1.013e-5
1.223, 1.002e-5
1.222, 9.922e-6
1.221, 9.820e-6
1.220, 9.720e-6
1.219, 9.622e-6
1.218, 9.525e-6
1.217, 9.431e-6
1.216, 9.336e-6
1.215, 9.243e-6
1.214, 9.153e-6
1.213, 9.062e-6
1.212, 8.973e-6
1.211, 8.886e-6
1.210, 8.799e-6
1.209, 8.714e-6
1.208, 8.630e-6
1.207, 8.547e-6
1.206, 8.467e-6
1.205, 8.386e-6
1.204, 8.306e-6
1.203, 8.228e-6
1.202, 8.150e-6
1.201, 8.075e-6
1.200, 8.000e-6
1.199, 7.928e-6
1.198, 7.855e-6
1.197, 7.783e-6
1.196, 7.713e-6
1.195, 7.644e-6
1.194, 7.573e-6
1.193, 7.506e-6
1.192, 7.439e-6
1.191, 7.373e-6
1.190, 7.308e-6
1.189, 7.244e-6
1.188, 7.180e-6
1.187, 7.118e-6
1.186, 7.055e-6
1.185, 6.995e-6
1.184, 6.936e-6
1.183, 6.876e-6
1.182, 6.818e-6
1.181, 6.760e-6
1.180, 6.703e-6
1.179, 6.647e-6
1.178, 6.591e-6
1.177, 6.537e-6
1.176, 6.483e-6
1.175, 6.430e-6
1.174, 6.379e-6
1.173, 6.327e-6
1.172, 6.275e-6
1.171, 6.226e-6
1.170, 6.175e-6
1.169, 6.127e-6
1.168, 6.079e-6
1.167, 6.030e-6
1.166, 5.983e-6
1.165, 5.937e-6
1.164, 5.890e-6
1.163, 5.846e-6
1.162, 5.801e-6
1.161, 5.757e-6
1.160, 5.713e-6
1.159, 5.671e-6
1.158, 5.628e-6
1.157, 5.586e-6
1.156, 5.544e-6
1.155, 5.505e-6
1.154, 5.463e-6
1.153, 5.425e-6
1.152, 5.385e-6
1.151, 5.347e-6
1.150, 5.309e-6
1.149, 5.272e-6
1.148, 5.233e-6
1.147, 5.198e-6
1.146, 5.160e-6
1.145, 5.125e-6
1.144, 5.090e-6
1.143, 5.055e-6
1.142, 5.021e-6
1.141, 4.988e-6
1.140, 4.953e-6
1.139, 4.922e-6
1.138, 4.888e-6
1.137, 4.858e-6
1.136, 4.826e-6
1.135, 4.795e-6
1.134, 4.764e-6
1.133, 4.734e-6
1.132, 4.703e-6
1.131, 4.675e-6
1.130, 4.644e-6
1.129, 4.617e-6
1.128, 4.587e-6
1.127, 4.559e-6
1.126, 4.530e-6
1.125, 4.504e-6
1.124, 4.476e-6
1.123, 4.451e-6
1.122, 4.423e-6
1.121, 4.398e-6
1.120, 4.372e-6
1.119, 4.346e-6
1.118, 4.322e-6
1.117, 4.297e-6
1.116, 4.272e-6
1.115, 4.250e-6
1.114, 4.225e-6
1.113, 4.202e-6
1.112, 4.179e-6
1.111, 4.157e-6
1.110, 4.135e-6
1.109, 4.113e-6
1.108, 4.090e-6
1.107, 4.070e-6
1.106, 4.047e-6
1.105, 4.027e-6
1.104, 4.006e-6
1.103, 3.986e-6
1.102, 3.965e-6
1.101, 3.947e-6
1.100, 3.926e-6
1.099, 3.909e-6
1.098, 3.889e-6
1.097, 3.871e-6
1.096, 3.852e-6
1.095, 3.834e-6
1.094, 3.816e-6
1.093, 3.800e-6
1.092, 3.782e-6
1.091, 3.766e-6
1.090, 3.748e-6
1.089, 3.732e-6
1.088, 3.715e-6
1.087, 3.699e-6
1.086, 3.683e-6
1.085, 3.668e-6
1.084, 3.652e-6
1.083, 3.637e-6
1.082, 3.621e-6
1.081, 3.608e-6
1.080, 3.592e-6
1.079, 3.579e-6
1.078, 3.564e-6
1.077, 3.551e-6
1.076, 3.536e-6
1.075, 3.524e-6
1.074, 3.509e-6
1.073, 3.498e-6
1.072, 3.484e-6
1.071, 3.472e-6
1.070, 3.459e-6
1.069, 3.448e-6
1.068, 3.434e-6
1.067, 3.424e-6
1.066, 3.410e-6
1.065, 3.400e-6
1.064, 3.387e-6
1.063, 3.376e-6
1.062, 3.365e-6
1.061, 3.355e-6
1.060, 3.342e-6
1.059, 3.333e-6
1.058, 3.321e-6
1.057, 3.312e-6
1.056, 3.301e-6
1.055, 3.292e-6
1.054, 3.281e-6
1.053, 3.272e-6
1.052, 3.261e-6
1.051, 3.253e-6
1.050, 3.241e-6
1.049, 3.233e-6
1.048, 3.223e-6
1.047, 3.213e-6
1.046, 3.204e-6
1.045, 3.195e-6
1.044, 3.184e-6
1.043, 3.177e-6
1.042, 3.167e-6
1.041, 3.159e-6
1.040, 3.149e-6
1.039, 3.141e-6
1.038, 3.132e-6
1.037, 3.124e-6
1.036, 3.114e-6
1.035, 3.108e-6
1.034, 3.097e-6
1.033, 3.091e-6
1.032, 3.082e-6
1.031, 3.074e-6
1.030, 3.065e-6
1.029, 3.058e-6
1.028, 3.049e-6
1.027, 3.042e-6
1.026, 3.032e-6
1.025, 3.025e-6
1.024, 3.016e-6
1.023, 3.009e-6
1.022, 3.001e-6
1.021, 2.994e-6
1.020, 2.985e-6
1.019, 2.979e-6
1.018, 2.970e-6
1.017, 2.964e-6
1.016, 2.955e-6
1.015, 2.949e-6
1.014, 2.941e-6
1.013, 2.934e-6
1.012, 2.925e-6
1.011, 2.919e-6
1.010, 2.909e-6
1.009, 2.904e-6
1.008, 2.895e-6
1.007, 2.888e-6
1.006, 2.881e-6
1.005, 2.874e-6
1.004, 2.866e-6
1.003, 2.860e-6
1.002, 2.852e-6
1.001, 2.846e-6
1.000, 2.837e-6
0.999, 2.831e-6
0.998, 2.824e-6
0.997, 2.818e-6
0.996, 2.810e-6
0.995, 2.804e-6
0.994, 2.796e-6
0.993, 2.790e-6
0.992, 2.782e-6
0.991, 2.776e-6
0.990, 2.769e-6
0.989, 2.763e-6
0.988, 2.755e-6
0.987, 2.750e-6
0.986, 2.742e-6
0.985, 2.736e-6
0.984, 2.728e-6
0.983, 2.722e-6
0.982, 2.716e-6
0.981, 2.709e-6
0.980, 2.702e-6
0.979, 2.696e-6
0.978, 2.689e-6
0.977, 2.683e-6
0.976, 2.676e-6
0.975, 2.670e-6
0.974, 2.663e-6
0.973, 2.657e-6
0.972, 2.649e-6
0.971, 2.644e-6
0.970, 2.636e-6
0.969, 2.631e-6
0.968, 2.624e-6
0.967, 2.617e-6
0.966, 2.610e-6
0.965, 2.604e-6
0.964, 2.597e-6
0.963, 2.592e-6
0.962, 2.584e-6
0.961, 2.578e-6
0.960, 2.571e-6
0.959, 2.565e-6
0.958, 2.558e-6
0.957, 2.552e-6
0.956, 2.544e-6
0.955, 2.539e-6
0.954, 2.531e-6
0.953, 2.526e-6
0.952, 2.518e-6
0.951, 2.511e-6
0.950, 2.504e-6
0.949, 2.498e-6
0.948, 2.490e-6
0.947, 2.485e-6
0.946, 2.477e-6
0.945, 2.471e-6
0.944, 2.464e-6
0.943, 2.457e-6
0.942, 2.450e-6
0.941, 2.443e-6
0.940, 2.435e-6
0.939, 2.429e-6
0.938, 2.421e-6
0.937, 2.415e-6
0.936, 2.406e-6
0.935, 2.399e-6
0.934, 2.392e-6
0.933, 2.385e-6
0.932, 2.376e-6
0.931, 2.370e-6
0.930, 2.361e-6
0.929, 2.354e-6
0.928, 2.346e-6
0.927, 2.338e-6
0.926, 2.330e-6
0.925, 2.322e-6
0.924, 2.313e-6
0.923, 2.305e-6
0.922, 2.295e-6
0.921, 2.287e-6
0.920, 2.278e-6
0.919, 2.269e-6
0.918, 2.260e-6
0.917, 2.251e-6
0.916, 2.242e-6
0.915, 2.233e-6
0.914, 2.222e-6
0.913, 2.213e-6
0.912, 2.203e-6
0.911, 2.193e-6
0.910, 2.182e-6
0.909, 2.172e-6
0.908, 2.161e-6
0.907, 2.151e-6
0.906, 2.138e-6
0.905, 2.127e-6
0.904, 2.115e-6
0.903, 2.103e-6
0.902, 2.092e-6
0.901, 2.079e-6
0.900, 2.065e-6
0.899, 2.054e-6
0.898, 2.039e-6
0.897, 2.026e-6
0.896, 2.012e-6
0.895, 1.998e-6
0.894, 1.984e-6
0.893, 1.969e-6
0.892, 1.954e-6
0.891, 1.939e-6
0.890, 1.922e-6
0.889, 1.907e-6
0.888, 1.890e-6
0.887, 1.872e-6
0.886, 1.855e-6
0.885, 1.837e-6
0.884, 1.817e-6
0.883, 1.799e-6
0.882, 1.779e-6
0.881, 1.760e-6
0.880, 1.740e-6
0.879, 1.719e-6
0.878, 1.698e-6
0.877, 1.675e-6
0.876, 1.653e-6
0.875, 1.629e-6
0.874, 1.604e-6
0.873, 1.580e-6
0.872, 1.554e-6
0.871, 1.528e-6
0.870, 1.502e-6
0.869, 1.473e-6
0.868, 1.444e-6
0.867, 1.416e-6
0.866, 1.386e-6
0.865, 1.354e-6
0.864, 1.322e-6
0.863, 1.289e-6
0.862, 1.256e-6
0.861, 1.221e-6
0.860, 1.185e-6
0.859, 1.149e-6
0.858, 1.111e-6
0.857, 1.072e-6
0.856, 1.033e-6
0.855, 9.908e-7
0.854, 9.498e-7
0.853, 9.054e-7
0.852, 8.603e-7
0.851, 8.151e-7
0.850, 7.670e-7
0.849, 7.197e-7
0.848, 6.703e-7
0.847, 6.177e-7
0.846, 5.657e-7
0.845, 5.110e-7
0.844, 4.552e-7
0.843, 3.989e-7
0.842, 3.402e-7
0.841, 2.811e-7
0.840, 2.202e-7
0.839, 1.565e-7
0.838, 9.367e-8
0.837, 2.536e-8
0.836, -4.259e-8
0.835, -1.126e-7
0.834, -1.863e-7
0.833, -2.597e-7
0.832, -3.353e-7
0.831, -4.131e-7
0.830, -4.911e-7
0.829, -5.735e-7
0.828, -6.554e-7
0.827, -7.411e-7
0.826, -8.289e-7
0.825, -9.159e-7
0.824, -1.008e-6
0.823, -1.101e-6
0.822, -1.194e-6
0.821, -1.293e-6
0.820, -1.390e-6
0.819, -1.498e-6
0.818, -1.604e-6
0.817, -1.706e-6
0.816, -1.812e-6
0.815, -1.920e-6
0.814, -2.029e-6
0.813, -2.142e-6
0.812, -2.256e-6
0.811, -2.373e-6
0.810, -2.493e-6
0.809, -2.611e-6
0.808, -2.734e-6
0.807, -2.859e-6
0.806, -2.982e-6
0.805, -3.112e-6
0.804, -3.239e-6
0.803, -3.370e-6
0.802, -3.503e-6
0.801, -3.636e-6
0.800, -3.771e-6
0.799, -3.908e-6
0.798, -4.045e-6
0.797, -4.186e-6
0.796, -4.324e-6
0.795, -4.467e-6
0.794, -4.611e-6
0.793, -4.752e-6
0.792, -4.897e-6
0.791, -5.042e-6
0.790, -5.185e-6
0.789, -5.334e-6
0.788, -5.479e-6
0.787, -5.626e-6
0.786, -5.773e-6
0.785, -5.920e-6
0.784, -6.066e-6
0.783, -6.213e-6
0.782, -6.357e-6
0.781, -6.506e-6
0.780, -6.652e-6
0.779, -6.798e-6
0.778, -6.942e-6
0.777, -7.083e-6
0.776, -7.229e-6
0.775, -7.372e-6
0.774, -7.509e-6
0.773, -7.649e-6
0.772, -7.785e-6
0.771, -7.920e-6
0.770, -8.056e-6
0.769, -8.187e-6
0.768, -8.318e-6
0.767, -8.448e-6
0.766, -8.569e-6
0.765, -8.692e-6
0.764, -8.810e-6
0.763, -8.928e-6
0.762, -9.044e-6
0.761, -9.153e-6
0.760, -9.263e-6
0.759, -9.368e-6
0.758, -9.469e-6
0.757, -9.569e-6
0.756, -9.664e-6
0.755, -9.756e-6
0.754, -9.846e-6
0.753, -9.928e-6
0.752, -1.001e-5
0.751, -1.009e-5
0.750, -1.016e-5
0.749, -1.023e-5
0.748, -1.029e-5
0.747, -1.036e-5
0.746, -1.041e-5
0.745, -1.046e-5
0.744, -1.052e-5
0.743, -1.056e-5
0.742, -1.060e-5
0.741, -1.064e-5
0.740, -1.067e-5
0.739, -1.070e-5
0.738, -1.072e-5
0.737, -1.074e-5
0.736, -1.076e-5
0.735, -1.077e-5
0.734, -1.078e-5
0.733, -1.079e-5
0.732, -1.079e-5
0.731, -1.079e-5
0.730, -1.078e-5
0.729, -1.077e-5
0.728, -1.076e-5
0.727, -1.075e-5
0.726, -1.073e-5
0.725, -1.071e-5
0.724, -1.069e-5
0.723, -1.066e-5
0.722, -1.064e-5
0.721, -1.060e-5
0.720, -1.057e-5
0.719, -1.053e-5
0.718, -1.050e-5
0.717, -1.046e-5
0.716, -1.042e-5
0.715, -1.037e-5
0.714, -1.033e-5
0.713, -1.028e-5
0.712, -1.023e-5
0.711, -1.018e-5
0.710, -1.013e-5
0.709, -1.008e-5
0.708, -1.002e-5
0.707, -9.966e-6
0.706, -9.911e-6
0.705, -9.854e-6
0.704, -9.797e-6
0.703, -9.740e-6
0.702, -9.680e-6
0.701, -9.623e-6
0.700, -9.563e-6
0.699, -9.503e-6
0.698, -9.445e-6
0.697, -9.385e-6
0.696, -9.325e-6
0.695, -9.266e-6
0.694, -9.204e-6
0.693, -9.146e-6
0.692, -9.086e-6
0.691, -9.027e-6
0.690, -8.968e-6
0.689, -8.909e-6
0.688, -8.849e-6
0.687, -8.791e-6
0.686, -8.731e-6
0.685, -8.674e-6
0.684, -8.615e-6
0.683, -8.559e-6
0.682, -8.502e-6
0.681, -8.446e-6
0.680, -8.390e-6
0.679, -8.335e-6
0.678, -8.278e-6
0.677, -8.225e-6
0.676, -8.170e-6
0.675, -8.118e-6
0.674, -8.065e-6
0.673, -8.013e-6
0.672, -7.960e-6
0.671, -7.910e-6
0.670, -7.858e-6
0.669, -7.809e-6
0.668, -7.759e-6
0.667, -7.711e-6
0.666, -7.662e-6
0.665, -7.615e-6
0.664, -7.568e-6
0.663, -7.523e-6
0.662, -7.475e-6
0.661, -7.431e-6
0.660, -7.386e-6
0.659, -7.342e-6
0.658, -7.298e-6
0.657, -7.255e-6
0.656, -7.212e-6
0.655, -7.171e-6
0.654, -7.128e-6
0.653, -7.088e-6
0.652, -7.047e-6
0.651, -7.007e-6
0.650, -6.968e-6
0.649, -6.930e-6
0.648, -6.891e-6
0.647, -6.855e-6
0.646, -6.816e-6
0.645, -6.780e-6
0.644, -6.743e-6
0.643, -6.707e-6
0.642, -6.672e-6
0.641, -6.638e-6
0.640, -6.602e-6
0.639, -6.570e-6
0.638, -6.535e-6
0.637, -6.503e-6
0.636, -6.470e-6
0.635, -6.438e-6
0.634, -6.406e-6
0.633, -6.375e-6
0.632, -6.343e-6
0.631, -6.314e-6
0.630, -6.283e-6
0.629, -6.254e-6
0.628, -6.224e-6
0.627, -6.196e-6
0.626, -6.167e-6
0.625, -6.140e-6
0.624, -6.111e-6
0.623, -6.085e-6
0.622, -6.056e-6
0.621, -6.031e-6
0.620, -6.005e-6
0.619, -5.980e-6
0.618, -5.953e-6
0.617, -5.929e-6
0.616, -5.903e-6
0.615, -5.880e-6
0.614, -5.854e-6
0.613, -5.831e-6
0.612, -5.807e-6
0.611, -5.784e-6
0.610, -5.760e-6
0.609, -5.738e-6
0.608, -5.714e-6
0.607, -5.694e-6
0.606, -5.670e-6
0.605, -5.650e-6
0.604, -5.627e-6
0.603, -5.606e-6
0.602, -5.584e-6
0.601, -5.564e-6
0.600, -5.543e-6
0.599, -5.524e-6
0.598, -5.503e-6
0.597, -5.484e-6
0.596, -5.464e-6
0.595, -5.445e-6
0.594, -5.426e-6
0.593, -5.408e-6
0.592, -5.388e-6
0.591, -5.371e-6
0.590, -5.351e-6
0.589, -5.334e-6
0.588, -5.316e-6
0.587, -5.298e-6
0.586, -5.280e-6
0.585, -5.264e-6
0.584, -5.246e-6
0.583, -5.231e-6
0.582, -5.212e-6
0.581, -5.197e-6
0.580, -5.180e-6
0.579, -5.164e-6
0.578, -5.148e-6
0.577, -5.133e-6
0.576, -5.116e-6
0.575, -5.102e-6
0.574, -5.085e-6
0.573, -5.072e-6
0.572, -5.055e-6
0.571, -5.042e-6
0.570, -5.027e-6
0.569, -5.012e-6
0.568, -4.998e-6
0.567, -4.984e-6
0.566, -4.969e-6
0.565, -4.956e-6
0.564, -4.942e-6
0.563, -4.929e-6
0.562, -4.915e-6
0.561, -4.902e-6
0.560, -4.887e-6
0.559, -4.876e-6
0.558, -4.861e-6
0.557, -4.849e-6
0.556, -4.835e-6
0.555, -4.823e-6
0.554, -4.810e-6
0.553, -4.798e-6
0.552, -4.785e-6
0.551, -4.775e-6
0.550, -4.761e-6
0.549, -4.750e-6
0.548, -4.737e-6
0.547, -4.726e-6
0.546, -4.714e-6
0.545, -4.703e-6
0.544, -4.691e-6
0.543, -4.681e-6
0.542, -4.668e-6
0.541, -4.658e-6
0.540, -4.647e-6
0.539, -4.636e-6
0.538, -4.625e-6
0.537, -4.615e-6
0.536, -4.604e-6
0.535, -4.594e-6
0.534, -4.583e-6
0.533, -4.573e-6
0.532, -4.563e-6
0.531, -4.552e-6
0.530, -4.542e-6
0.529, -4.532e-6
0.528, -4.522e-6
0.527, -4.513e-6
0.526, -4.503e-6
0.525, -4.494e-6
0.524, -4.484e-6
0.523, -4.474e-6
0.522, -4.465e-6
0.521, -4.457e-6
0.520, -4.447e-6
0.519, -4.439e-6
0.518, -4.429e-6
0.517, -4.421e-6
0.516, -4.412e-6
0.515, -4.402e-6
0.514, -4.394e-6
0.513, -4.385e-6
0.512, -4.377e-6
0.511, -4.369e-6
0.510, -4.359e-6
0.509, -4.352e-6
0.508, -4.343e-6
0.507, -4.334e-6
0.506, -4.327e-6
0.505, -4.318e-6
0.504, -4.310e-6
0.503, -4.303e-6
0.502, -4.293e-6
0.501, -4.286e-6
0.500, -4.278e-6
0.499, -4.271e-6
0.498, -4.263e-6
0.497, -4.255e-6
0.496, -4.247e-6
0.495, -4.240e-6
0.494, -4.232e-6
0.493, -4.225e-6
0.492, -4.218e-6
0.491, -4.210e-6
0.490, -4.203e-6
0.489, -4.196e-6
0.488, -4.189e-6
0.487, -4.183e-6
0.486, -4.174e-6
0.485, -4.168e-6
0.484, -4.161e-6
0.483, -4.154e-6
0.482, -4.148e-6
0.481, -4.140e-6
0.480, -4.133e-6
0.479, -4.127e-6
0.478, -4.120e-6
0.477, -4.114e-6
0.476, -4.107e-6
0.475, -4.101e-6
0.474, -4.095e-6
0.473, -4.088e-6
0.472, -4.082e-6
0.471, -4.075e-6
0.470, -4.068e-6
0.469, -4.062e-6
0.468, -4.056e-6
0.467, -4.050e-6
0.466, -4.044e-6
0.465, -4.038e-6
0.464, -4.032e-6
0.463, -4.026e-6
0.462, -4.020e-6
0.461, -4.014e-6
0.460, -4.009e-6
0.459, -4.003e-6
0.458, -3.998e-6
0.457, -3.991e-6
0.456, -3.986e-6
0.455, -3.980e-6
0.454, -3.975e-6
0.453, -3.969e-6
0.452, -3.964e-6
0.451, -3.958e-6
0.450, -3.953e-6
0.449, -3.947e-6
0.448, -3.942e-6
0.447, -3.937e-6
0.446, -3.931e-6
0.445, -3.926e-6
0.444, -3.922e-6
0.443, -3.916e-6
0.442, -3.912e-6
0.441, -3.906e-6
0.440, -3.901e-6
0.439, -3.896e-6
0.438, -3.891e-6
0.437, -3.886e-6
0.436, -3.882e-6
0.435, -3.877e-6
0.434, -3.872e-6
0.433, -3.867e-6
0.432, -3.863e-6
0.431, -3.858e-6
0.430, -3.853e-6
0.429, -3.849e-6
0.428, -3.845e-6
0.427, -3.839e-6
0.426, -3.835e-6
0.425, -3.830e-6
0.424, -3.826e-6
0.423, -3.822e-6
0.422, -3.818e-6
0.421, -3.813e-6
0.420, -3.809e-6
0.419, -3.804e-6
0.418, -3.801e-6
0.417, -3.796e-6
0.416, -3.792e-6
0.415, -3.788e-6
0.414, -3.784e-6
0.413, -3.779e-6
0.412, -3.776e-6
0.411, -3.771e-6
0.410, -3.769e-6
0.409, -3.764e-6
0.408, -3.761e-6
0.407, -3.756e-6
0.406, -3.752e-6
0.405, -3.748e-6
0.404, -3.745e-6
0.403, -3.740e-6
0.402, -3.738e-6
0.401, -3.733e-6
0.400, -3.730e-6
0.399, -3.726e-6
0.398, -3.722e-6
0.397, -3.719e-6
0.396, -3.716e-6
0.395, -3.711e-6
0.394, -3.709e-6
0.393, -3.704e-6
0.392, -3.701e-6
0.391, -3.697e-6
0.390, -3.694e-6
0.389, -3.690e-6
0.388, -3.688e-6
0.387, -3.683e-6
0.386, -3.681e-6
0.385, -3.677e-6
0.384, -3.675e-6
0.383, -3.671e-6
0.382, -3.668e-6
0.381, -3.664e-6
0.380, -3.662e-6
0.379, -3.658e-6
0.378, -3.656e-6
0.377, -3.652e-6
0.376, -3.649e-6
0.375, -3.646e-6
0.374, -3.643e-6
0.373, -3.639e-6
0.372, -3.638e-6
0.371, -3.634e-6
0.370, -3.632e-6
0.369, -3.628e-6
0.368, -3.626e-6
0.367, -3.623e-6
0.366, -3.620e-6
0.365, -3.617e-6
0.364, -3.615e-6
0.363, -3.611e-6
0.362, -3.610e-6
0.361, -3.606e-6
0.360, -3.604e-6
0.359, -3.601e-6
0.358, -3.599e-6
0.357, -3.595e-6
0.356, -3.594e-6
0.355, -3.590e-6
0.354, -3.589e-6
0.353, -3.585e-6
0.352, -3.583e-6
0.351, -3.581e-6
0.350, -3.578e-6
0.349, -3.575e-6
0.348, -3.574e-6
0.347, -3.571e-6
0.346, -3.570e-6
0.345, -3.566e-6
0.344, -3.565e-6
0.343, -3.562e-6
0.342, -3.560e-6
0.341, -3.557e-6
0.340, -3.556e-6
0.339, -3.552e-6
0.338, -3.551e-6
0.337, -3.548e-6
0.336, -3.546e-6
0.335, -3.544e-6
0.334, -3.542e-6
0.333, -3.539e-6
0.332, -3.539e-6
0.331, -3.535e-6
0.330, -3.534e-6
0.329, -3.531e-6
0.328, -3.530e-6
0.327, -3.528e-6
0.326, -3.526e-6
0.325, -3.523e-6
0.324, -3.523e-6
0.323, -3.519e-6
0.322, -3.519e-6
0.321, -3.516e-6
0.320, -3.515e-6
0.319, -3.513e-6
0.318, -3.511e-6
0.317, -3.509e-6
0.316, -3.508e-6
0.315, -3.505e-6
0.314, -3.505e-6
0.313, -3.501e-6
0.312, -3.501e-6
0.311, -3.498e-6
0.310, -3.497e-6
0.309, -3.495e-6
0.308, -3.494e-6
0.307, -3.492e-6
0.306, -3.492e-6
0.305, -3.489e-6
0.304, -3.488e-6
0.303, -3.486e-6
0.302, -3.485e-6
0.301, -3.482e-6
