Mar. 20, 2019   07:27:39
Cyclic Voltammetry
File: e:\sine_wave_volt_rucn6\text_copy\dc\dcrucn2-3.txt
Data Source:  Experiment
Instrument Model:  CHI760E
Header: 
Note: 

Init E (V) = 0.3
High E (V) = 1.3
Low E (V) = 0.3
Init P/N = P
Scan Rate (V/s) = 0.1
Segment = 2
Sample Interval (V) = 0.001
Quiet Time (sec) = 2
Sensitivity (A/V) = 1e-5

Segment 1:
Segment 2:

Potential/V, Current/A

0.300, 1.984e-7
0.301, 3.175e-7
0.302, 3.709e-7
0.303, 4.038e-7
0.304, 4.252e-7
0.305, 4.468e-7
0.306, 4.627e-7
0.307, 4.806e-7
0.308, 4.944e-7
0.309, 5.062e-7
0.310, 5.177e-7
0.311, 5.295e-7
0.312, 5.391e-7
0.313, 5.503e-7
0.314, 5.586e-7
0.315, 5.685e-7
0.316, 5.773e-7
0.317, 5.860e-7
0.318, 5.941e-7
0.319, 6.030e-7
0.320, 6.091e-7
0.321, 6.187e-7
0.322, 6.248e-7
0.323, 6.323e-7
0.324, 6.393e-7
0.325, 6.455e-7
0.326, 6.527e-7
0.327, 6.601e-7
0.328, 6.648e-7
0.329, 6.726e-7
0.330, 6.781e-7
0.331, 6.847e-7
0.332, 6.909e-7
0.333, 6.958e-7
0.334, 7.017e-7
0.335, 7.087e-7
0.336, 7.128e-7
0.337, 7.199e-7
0.338, 7.244e-7
0.339, 7.306e-7
0.340, 7.364e-7
0.341, 7.414e-7
0.342, 7.467e-7
0.343, 7.527e-7
0.344, 7.567e-7
0.345, 7.635e-7
0.346, 7.680e-7
0.347, 7.732e-7
0.348, 7.790e-7
0.349, 7.832e-7
0.350, 7.883e-7
0.351, 7.943e-7
0.352, 7.975e-7
0.353, 8.038e-7
0.354, 8.084e-7
0.355, 8.135e-7
0.356, 8.185e-7
0.357, 8.229e-7
0.358, 8.283e-7
0.359, 8.336e-7
0.360, 8.375e-7
0.361, 8.434e-7
0.362, 8.472e-7
0.363, 8.519e-7
0.364, 8.571e-7
0.365, 8.610e-7
0.366, 8.661e-7
0.367, 8.718e-7
0.368, 8.744e-7
0.369, 8.814e-7
0.370, 8.849e-7
0.371, 8.896e-7
0.372, 8.949e-7
0.373, 8.984e-7
0.374, 9.031e-7
0.375, 9.087e-7
0.376, 9.118e-7
0.377, 9.178e-7
0.378, 9.214e-7
0.379, 9.260e-7
0.380, 9.315e-7
0.381, 9.346e-7
0.382, 9.394e-7
0.383, 9.446e-7
0.384, 9.481e-7
0.385, 9.539e-7
0.386, 9.574e-7
0.387, 9.622e-7
0.388, 9.669e-7
0.389, 9.708e-7
0.390, 9.756e-7
0.391, 9.804e-7
0.392, 9.835e-7
0.393, 9.891e-7
0.394, 9.925e-7
0.395, 9.972e-7
0.396, 1.002e-6
0.397, 1.006e-6
0.398, 1.010e-6
0.399, 1.015e-6
0.400, 1.018e-6
0.401, 1.023e-6
0.402, 1.027e-6
0.403, 1.031e-6
0.404, 1.036e-6
0.405, 1.040e-6
0.406, 1.044e-6
0.407, 1.049e-6
0.408, 1.052e-6
0.409, 1.058e-6
0.410, 1.063e-6
0.411, 1.066e-6
0.412, 1.071e-6
0.413, 1.074e-6
0.414, 1.078e-6
0.415, 1.083e-6
0.416, 1.086e-6
0.417, 1.091e-6
0.418, 1.095e-6
0.419, 1.099e-6
0.420, 1.103e-6
0.421, 1.106e-6
0.422, 1.112e-6
0.423, 1.116e-6
0.424, 1.119e-6
0.425, 1.124e-6
0.426, 1.128e-6
0.427, 1.131e-6
0.428, 1.137e-6
0.429, 1.140e-6
0.430, 1.144e-6
0.431, 1.149e-6
0.432, 1.151e-6
0.433, 1.157e-6
0.434, 1.160e-6
0.435, 1.164e-6
0.436, 1.169e-6
0.437, 1.172e-6
0.438, 1.176e-6
0.439, 1.181e-6
0.440, 1.184e-6
0.441, 1.189e-6
0.442, 1.192e-6
0.443, 1.196e-6
0.444, 1.201e-6
0.445, 1.204e-6
0.446, 1.208e-6
0.447, 1.213e-6
0.448, 1.216e-6
0.449, 1.221e-6
0.450, 1.225e-6
0.451, 1.229e-6
0.452, 1.234e-6
0.453, 1.236e-6
0.454, 1.241e-6
0.455, 1.246e-6
0.456, 1.249e-6
0.457, 1.253e-6
0.458, 1.257e-6
0.459, 1.261e-6
0.460, 1.267e-6
0.461, 1.270e-6
0.462, 1.274e-6
0.463, 1.278e-6
0.464, 1.282e-6
0.465, 1.286e-6
0.466, 1.291e-6
0.467, 1.294e-6
0.468, 1.299e-6
0.469, 1.302e-6
0.470, 1.307e-6
0.471, 1.312e-6
0.472, 1.315e-6
0.473, 1.320e-6
0.474, 1.323e-6
0.475, 1.327e-6
0.476, 1.333e-6
0.477, 1.336e-6
0.478, 1.341e-6
0.479, 1.345e-6
0.480, 1.349e-6
0.481, 1.354e-6
0.482, 1.358e-6
0.483, 1.362e-6
0.484, 1.368e-6
0.485, 1.371e-6
0.486, 1.376e-6
0.487, 1.381e-6
0.488, 1.385e-6
0.489, 1.390e-6
0.490, 1.394e-6
0.491, 1.398e-6
0.492, 1.404e-6
0.493, 1.406e-6
0.494, 1.412e-6
0.495, 1.417e-6
0.496, 1.421e-6
0.497, 1.425e-6
0.498, 1.430e-6
0.499, 1.433e-6
0.500, 1.440e-6
0.501, 1.443e-6
0.502, 1.449e-6
0.503, 1.453e-6
0.504, 1.458e-6
0.505, 1.463e-6
0.506, 1.468e-6
0.507, 1.471e-6
0.508, 1.478e-6
0.509, 1.481e-6
0.510, 1.487e-6
0.511, 1.491e-6
0.512, 1.498e-6
0.513, 1.503e-6
0.514, 1.507e-6
0.515, 1.512e-6
0.516, 1.518e-6
0.517, 1.521e-6
0.518, 1.528e-6
0.519, 1.532e-6
0.520, 1.537e-6
0.521, 1.542e-6
0.522, 1.547e-6
0.523, 1.551e-6
0.524, 1.559e-6
0.525, 1.562e-6
0.526, 1.568e-6
0.527, 1.573e-6
0.528, 1.578e-6
0.529, 1.583e-6
0.530, 1.589e-6
0.531, 1.594e-6
0.532, 1.601e-6
0.533, 1.604e-6
0.534, 1.611e-6
0.535, 1.616e-6
0.536, 1.621e-6
0.537, 1.627e-6
0.538, 1.633e-6
0.539, 1.638e-6
0.540, 1.646e-6
0.541, 1.649e-6
0.542, 1.656e-6
0.543, 1.662e-6
0.544, 1.667e-6
0.545, 1.673e-6
0.546, 1.679e-6
0.547, 1.684e-6
0.548, 1.692e-6
0.549, 1.696e-6
0.550, 1.703e-6
0.551, 1.709e-6
0.552, 1.715e-6
0.553, 1.721e-6
0.554, 1.727e-6
0.555, 1.732e-6
0.556, 1.740e-6
0.557, 1.744e-6
0.558, 1.751e-6
0.559, 1.757e-6
0.560, 1.762e-6
0.561, 1.769e-6
0.562, 1.775e-6
0.563, 1.781e-6
0.564, 1.790e-6
0.565, 1.794e-6
0.566, 1.802e-6
0.567, 1.809e-6
0.568, 1.815e-6
0.569, 1.822e-6
0.570, 1.829e-6
0.571, 1.834e-6
0.572, 1.844e-6
0.573, 1.847e-6
0.574, 1.856e-6
0.575, 1.862e-6
0.576, 1.869e-6
0.577, 1.877e-6
0.578, 1.884e-6
0.579, 1.890e-6
0.580, 1.899e-6
0.581, 1.904e-6
0.582, 1.913e-6
0.583, 1.920e-6
0.584, 1.927e-6
0.585, 1.934e-6
0.586, 1.942e-6
0.587, 1.948e-6
0.588, 1.958e-6
0.589, 1.963e-6
0.590, 1.973e-6
0.591, 1.980e-6
0.592, 1.987e-6
0.593, 1.996e-6
0.594, 2.004e-6
0.595, 2.011e-6
0.596, 2.021e-6
0.597, 2.027e-6
0.598, 2.037e-6
0.599, 2.045e-6
0.600, 2.053e-6
0.601, 2.062e-6
0.602, 2.071e-6
0.603, 2.079e-6
0.604, 2.090e-6
0.605, 2.096e-6
0.606, 2.107e-6
0.607, 2.116e-6
0.608, 2.124e-6
0.609, 2.134e-6
0.610, 2.145e-6
0.611, 2.152e-6
0.612, 2.164e-6
0.613, 2.172e-6
0.614, 2.184e-6
0.615, 2.194e-6
0.616, 2.204e-6
0.617, 2.215e-6
0.618, 2.226e-6
0.619, 2.235e-6
0.620, 2.248e-6
0.621, 2.256e-6
0.622, 2.269e-6
0.623, 2.281e-6
0.624, 2.291e-6
0.625, 2.303e-6
0.626, 2.315e-6
0.627, 2.326e-6
0.628, 2.341e-6
0.629, 2.351e-6
0.630, 2.366e-6
0.631, 2.378e-6
0.632, 2.391e-6
0.633, 2.405e-6
0.634, 2.419e-6
0.635, 2.433e-6
0.636, 2.449e-6
0.637, 2.461e-6
0.638, 2.478e-6
0.639, 2.492e-6
0.640, 2.507e-6
0.641, 2.525e-6
0.642, 2.542e-6
0.643, 2.557e-6
0.644, 2.578e-6
0.645, 2.592e-6
0.646, 2.612e-6
0.647, 2.630e-6
0.648, 2.649e-6
0.649, 2.668e-6
0.650, 2.689e-6
0.651, 2.708e-6
0.652, 2.730e-6
0.653, 2.748e-6
0.654, 2.773e-6
0.655, 2.795e-6
0.656, 2.818e-6
0.657, 2.842e-6
0.658, 2.867e-6
0.659, 2.890e-6
0.660, 2.919e-6
0.661, 2.943e-6
0.662, 2.972e-6
0.663, 2.999e-6
0.664, 3.028e-6
0.665, 3.058e-6
0.666, 3.089e-6
0.667, 3.119e-6
0.668, 3.155e-6
0.669, 3.183e-6
0.670, 3.220e-6
0.671, 3.255e-6
0.672, 3.290e-6
0.673, 3.326e-6
0.674, 3.366e-6
0.675, 3.404e-6
0.676, 3.448e-6
0.677, 3.485e-6
0.678, 3.531e-6
0.679, 3.574e-6
0.680, 3.621e-6
0.681, 3.668e-6
0.682, 3.717e-6
0.683, 3.765e-6
0.684, 3.820e-6
0.685, 3.869e-6
0.686, 3.927e-6
0.687, 3.982e-6
0.688, 4.040e-6
0.689, 4.099e-6
0.690, 4.162e-6
0.691, 4.223e-6
0.692, 4.291e-6
0.693, 4.354e-6
0.694, 4.427e-6
0.695, 4.496e-6
0.696, 4.569e-6
0.697, 4.645e-6
0.698, 4.721e-6
0.699, 4.798e-6
0.700, 4.883e-6
0.701, 4.961e-6
0.702, 5.052e-6
0.703, 5.138e-6
0.704, 5.230e-6
0.705, 5.326e-6
0.706, 5.421e-6
0.707, 5.516e-6
0.708, 5.622e-6
0.709, 5.720e-6
0.710, 5.831e-6
0.711, 5.938e-6
0.712, 6.051e-6
0.713, 6.165e-6
0.714, 6.282e-6
0.715, 6.399e-6
0.716, 6.527e-6
0.717, 6.654e-6
0.718, 6.788e-6
0.719, 6.917e-6
0.720, 7.052e-6
0.721, 7.186e-6
0.722, 7.327e-6
0.723, 7.463e-6
0.724, 7.616e-6
0.725, 7.757e-6
0.726, 7.914e-6
0.727, 8.060e-6
0.728, 8.217e-6
0.729, 8.375e-6
0.730, 8.539e-6
0.731, 8.698e-6
0.732, 8.870e-6
0.733, 9.026e-6
0.734, 9.202e-6
0.735, 9.369e-6
0.736, 9.543e-6
0.737, 9.718e-6
0.738, 9.896e-6
0.739, 1.007e-5
0.740, 1.026e-5
0.741, 1.042e-5
0.742, 1.062e-5
0.743, 1.080e-5
0.744, 1.098e-5
0.745, 1.116e-5
0.746, 1.135e-5
0.747, 1.153e-5
0.748, 1.172e-5
0.749, 1.189e-5
0.750, 1.209e-5
0.751, 1.227e-5
0.752, 1.245e-5
0.753, 1.263e-5
0.754, 1.281e-5
0.755, 1.298e-5
0.756, 1.317e-5
0.757, 1.333e-5
0.758, 1.351e-5
0.759, 1.367e-5
0.760, 1.385e-5
0.761, 1.401e-5
0.762, 1.418e-5
0.763, 1.433e-5
0.764, 1.449e-5
0.765, 1.463e-5
0.766, 1.479e-5
0.767, 1.492e-5
0.768, 1.507e-5
0.769, 1.521e-5
0.770, 1.535e-5
0.771, 1.547e-5
0.772, 1.560e-5
0.773, 1.570e-5
0.774, 1.582e-5
0.775, 1.592e-5
0.776, 1.604e-5
0.777, 1.613e-5
0.778, 1.623e-5
0.779, 1.631e-5
0.780, 1.640e-5
0.781, 1.647e-5
0.782, 1.656e-5
0.783, 1.662e-5
0.784, 1.669e-5
0.785, 1.674e-5
0.786, 1.680e-5
0.787, 1.684e-5
0.788, 1.690e-5
0.789, 1.693e-5
0.790, 1.697e-5
0.791, 1.700e-5
0.792, 1.703e-5
0.793, 1.705e-5
0.794, 1.707e-5
0.795, 1.708e-5
0.796, 1.711e-5
0.797, 1.710e-5
0.798, 1.711e-5
0.799, 1.710e-5
0.800, 1.710e-5
0.801, 1.710e-5
0.802, 1.709e-5
0.803, 1.707e-5
0.804, 1.706e-5
0.805, 1.703e-5
0.806, 1.702e-5
0.807, 1.699e-5
0.808, 1.696e-5
0.809, 1.693e-5
0.810, 1.690e-5
0.811, 1.686e-5
0.812, 1.683e-5
0.813, 1.679e-5
0.814, 1.676e-5
0.815, 1.672e-5
0.816, 1.668e-5
0.817, 1.663e-5
0.818, 1.659e-5
0.819, 1.655e-5
0.820, 1.651e-5
0.821, 1.646e-5
0.822, 1.641e-5
0.823, 1.636e-5
0.824, 1.631e-5
0.825, 1.626e-5
0.826, 1.621e-5
0.827, 1.616e-5
0.828, 1.611e-5
0.829, 1.606e-5
0.830, 1.601e-5
0.831, 1.596e-5
0.832, 1.591e-5
0.833, 1.585e-5
0.834, 1.580e-5
0.835, 1.575e-5
0.836, 1.570e-5
0.837, 1.565e-5
0.838, 1.560e-5
0.839, 1.555e-5
0.840, 1.550e-5
0.841, 1.545e-5
0.842, 1.540e-5
0.843, 1.535e-5
0.844, 1.530e-5
0.845, 1.525e-5
0.846, 1.521e-5
0.847, 1.516e-5
0.848, 1.511e-5
0.849, 1.507e-5
0.850, 1.502e-5
0.851, 1.497e-5
0.852, 1.493e-5
0.853, 1.488e-5
0.854, 1.484e-5
0.855, 1.480e-5
0.856, 1.476e-5
0.857, 1.472e-5
0.858, 1.468e-5
0.859, 1.463e-5
0.860, 1.459e-5
0.861, 1.455e-5
0.862, 1.451e-5
0.863, 1.447e-5
0.864, 1.444e-5
0.865, 1.440e-5
0.866, 1.436e-5
0.867, 1.433e-5
0.868, 1.429e-5
0.869, 1.425e-5
0.870, 1.422e-5
0.871, 1.419e-5
0.872, 1.416e-5
0.873, 1.412e-5
0.874, 1.409e-5
0.875, 1.406e-5
0.876, 1.403e-5
0.877, 1.400e-5
0.878, 1.397e-5
0.879, 1.394e-5
0.880, 1.391e-5
0.881, 1.388e-5
0.882, 1.385e-5
0.883, 1.382e-5
0.884, 1.379e-5
0.885, 1.377e-5
0.886, 1.374e-5
0.887, 1.371e-5
0.888, 1.369e-5
0.889, 1.366e-5
0.890, 1.364e-5
0.891, 1.361e-5
0.892, 1.359e-5
0.893, 1.356e-5
0.894, 1.354e-5
0.895, 1.352e-5
0.896, 1.349e-5
0.897, 1.347e-5
0.898, 1.345e-5
0.899, 1.343e-5
0.900, 1.341e-5
0.901, 1.339e-5
0.902, 1.337e-5
0.903, 1.335e-5
0.904, 1.332e-5
0.905, 1.331e-5
0.906, 1.329e-5
0.907, 1.327e-5
0.908, 1.325e-5
0.909, 1.323e-5
0.910, 1.321e-5
0.911, 1.319e-5
0.912, 1.317e-5
0.913, 1.316e-5
0.914, 1.314e-5
0.915, 1.312e-5
0.916, 1.311e-5
0.917, 1.309e-5
0.918, 1.307e-5
0.919, 1.306e-5
0.920, 1.304e-5
0.921, 1.303e-5
0.922, 1.302e-5
0.923, 1.300e-5
0.924, 1.299e-5
0.925, 1.297e-5
0.926, 1.296e-5
0.927, 1.295e-5
0.928, 1.293e-5
0.929, 1.292e-5
0.930, 1.291e-5
0.931, 1.290e-5
0.932, 1.289e-5
0.933, 1.287e-5
0.934, 1.286e-5
0.935, 1.285e-5
0.936, 1.284e-5
0.937, 1.283e-5
0.938, 1.282e-5
0.939, 1.281e-5
0.940, 1.281e-5
0.941, 1.280e-5
0.942, 1.279e-5
0.943, 1.278e-5
0.944, 1.277e-5
0.945, 1.277e-5
0.946, 1.276e-5
0.947, 1.275e-5
0.948, 1.275e-5
0.949, 1.274e-5
0.950, 1.274e-5
0.951, 1.273e-5
0.952, 1.273e-5
0.953, 1.273e-5
0.954, 1.272e-5
0.955, 1.272e-5
0.956, 1.272e-5
0.957, 1.271e-5
0.958, 1.271e-5
0.959, 1.271e-5
0.960, 1.271e-5
0.961, 1.271e-5
0.962, 1.270e-5
0.963, 1.270e-5
0.964, 1.270e-5
0.965, 1.270e-5
0.966, 1.270e-5
0.967, 1.270e-5
0.968, 1.270e-5
0.969, 1.271e-5
0.970, 1.271e-5
0.971, 1.271e-5
0.972, 1.271e-5
0.973, 1.271e-5
0.974, 1.271e-5
0.975, 1.272e-5
0.976, 1.272e-5
0.977, 1.272e-5
0.978, 1.273e-5
0.979, 1.273e-5
0.980, 1.274e-5
0.981, 1.274e-5
0.982, 1.275e-5
0.983, 1.275e-5
0.984, 1.275e-5
0.985, 1.276e-5
0.986, 1.277e-5
0.987, 1.277e-5
0.988, 1.278e-5
0.989, 1.279e-5
0.990, 1.279e-5
0.991, 1.280e-5
0.992, 1.281e-5
0.993, 1.281e-5
0.994, 1.282e-5
0.995, 1.283e-5
0.996, 1.284e-5
0.997, 1.285e-5
0.998, 1.286e-5
0.999, 1.287e-5
1.000, 1.287e-5
1.001, 1.288e-5
1.002, 1.289e-5
1.003, 1.290e-5
1.004, 1.291e-5
1.005, 1.292e-5
1.006, 1.293e-5
1.007, 1.295e-5
1.008, 1.296e-5
1.009, 1.297e-5
1.010, 1.298e-5
1.011, 1.299e-5
1.012, 1.300e-5
1.013, 1.302e-5
1.014, 1.303e-5
1.015, 1.304e-5
1.016, 1.305e-5
1.017, 1.307e-5
1.018, 1.308e-5
1.019, 1.309e-5
1.020, 1.311e-5
1.021, 1.312e-5
1.022, 1.314e-5
1.023, 1.315e-5
1.024, 1.317e-5
1.025, 1.318e-5
1.026, 1.320e-5
1.027, 1.321e-5
1.028, 1.323e-5
1.029, 1.325e-5
1.030, 1.326e-5
1.031, 1.328e-5
1.032, 1.330e-5
1.033, 1.331e-5
1.034, 1.333e-5
1.035, 1.335e-5
1.036, 1.337e-5
1.037, 1.338e-5
1.038, 1.340e-5
1.039, 1.342e-5
1.040, 1.344e-5
1.041, 1.346e-5
1.042, 1.348e-5
1.043, 1.350e-5
1.044, 1.352e-5
1.045, 1.354e-5
1.046, 1.356e-5
1.047, 1.358e-5
1.048, 1.360e-5
1.049, 1.362e-5
1.050, 1.364e-5
1.051, 1.367e-5
1.052, 1.369e-5
1.053, 1.371e-5
1.054, 1.373e-5
1.055, 1.376e-5
1.056, 1.378e-5
1.057, 1.381e-5
1.058, 1.383e-5
1.059, 1.385e-5
1.060, 1.388e-5
1.061, 1.390e-5
1.062, 1.393e-5
1.063, 1.395e-5
1.064, 1.398e-5
1.065, 1.401e-5
1.066, 1.403e-5
1.067, 1.406e-5
1.068, 1.409e-5
1.069, 1.411e-5
1.070, 1.414e-5
1.071, 1.417e-5
1.072, 1.420e-5
1.073, 1.423e-5
1.074, 1.425e-5
1.075, 1.428e-5
1.076, 1.431e-5
1.077, 1.434e-5
1.078, 1.437e-5
1.079, 1.441e-5
1.080, 1.444e-5
1.081, 1.447e-5
1.082, 1.450e-5
1.083, 1.453e-5
1.084, 1.456e-5
1.085, 1.460e-5
1.086, 1.463e-5
1.087, 1.467e-5
1.088, 1.470e-5
1.089, 1.473e-5
1.090, 1.477e-5
1.091, 1.480e-5
1.092, 1.484e-5
1.093, 1.488e-5
1.094, 1.491e-5
1.095, 1.495e-5
1.096, 1.499e-5
1.097, 1.502e-5
1.098, 1.506e-5
1.099, 1.510e-5
1.100, 1.514e-5
1.101, 1.518e-5
1.102, 1.522e-5
1.103, 1.526e-5
1.104, 1.530e-5
1.105, 1.534e-5
1.106, 1.538e-5
1.107, 1.543e-5
1.108, 1.547e-5
1.109, 1.551e-5
1.110, 1.555e-5
1.111, 1.560e-5
1.112, 1.564e-5
1.113, 1.569e-5
1.114, 1.573e-5
1.115, 1.578e-5
1.116, 1.582e-5
1.117, 1.587e-5
1.118, 1.592e-5
1.119, 1.597e-5
1.120, 1.601e-5
1.121, 1.607e-5
1.122, 1.611e-5
1.123, 1.616e-5
1.124, 1.621e-5
1.125, 1.626e-5
1.126, 1.632e-5
1.127, 1.637e-5
1.128, 1.642e-5
1.129, 1.648e-5
1.130, 1.653e-5
1.131, 1.658e-5
1.132, 1.664e-5
1.133, 1.669e-5
1.134, 1.675e-5
1.135, 1.680e-5
1.136, 1.686e-5
1.137, 1.692e-5
1.138, 1.697e-5
1.139, 1.703e-5
1.140, 1.709e-5
1.141, 1.715e-5
1.142, 1.721e-5
1.143, 1.727e-5
1.144, 1.733e-5
1.145, 1.739e-5
1.146, 1.745e-5
1.147, 1.751e-5
1.148, 1.758e-5
1.149, 1.764e-5
1.150, 1.771e-5
1.151, 1.777e-5
1.152, 1.784e-5
1.153, 1.790e-5
1.154, 1.797e-5
1.155, 1.804e-5
1.156, 1.811e-5
1.157, 1.817e-5
1.158, 1.824e-5
1.159, 1.831e-5
1.160, 1.838e-5
1.161, 1.846e-5
1.162, 1.852e-5
1.163, 1.860e-5
1.164, 1.867e-5
1.165, 1.875e-5
1.166, 1.882e-5
1.167, 1.890e-5
1.168, 1.897e-5
1.169, 1.905e-5
1.170, 1.912e-5
1.171, 1.920e-5
1.172, 1.928e-5
1.173, 1.936e-5
1.174, 1.944e-5
1.175, 1.952e-5
1.176, 1.960e-5
1.177, 1.968e-5
1.178, 1.977e-5
1.179, 1.985e-5
1.180, 1.994e-5
1.181, 2.002e-5
1.182, 2.011e-5
1.183, 2.019e-5
1.184, 2.028e-5
1.185, 2.037e-5
1.186, 2.045e-5
1.187, 2.054e-5
1.188, 2.063e-5
1.189, 2.072e-5
1.190, 2.082e-5
1.191, 2.091e-5
1.192, 2.100e-5
1.193, 2.110e-5
1.194, 2.119e-5
1.195, 2.129e-5
1.196, 2.138e-5
1.197, 2.148e-5
1.198, 2.158e-5
1.199, 2.168e-5
1.200, 2.177e-5
1.201, 2.187e-5
1.202, 2.197e-5
1.203, 2.208e-5
1.204, 2.218e-5
1.205, 2.228e-5
1.206, 2.239e-5
1.207, 2.249e-5
1.208, 2.260e-5
1.209, 2.271e-5
1.210, 2.281e-5
1.211, 2.292e-5
1.212, 2.303e-5
1.213, 2.315e-5
1.214, 2.326e-5
1.215, 2.337e-5
1.216, 2.349e-5
1.217, 2.360e-5
1.218, 2.372e-5
1.219, 2.384e-5
1.220, 2.396e-5
1.221, 2.408e-5
1.222, 2.420e-5
1.223, 2.433e-5
1.224, 2.445e-5
1.225, 2.458e-5
1.226, 2.470e-5
1.227, 2.484e-5
1.228, 2.497e-5
1.229, 2.510e-5
1.230, 2.524e-5
1.231, 2.538e-5
1.232, 2.551e-5
1.233, 2.566e-5
1.234, 2.580e-5
1.235, 2.594e-5
1.236, 2.609e-5
1.237, 2.623e-5
1.238, 2.638e-5
1.239, 2.653e-5
1.240, 2.668e-5
1.241, 2.684e-5
1.242, 2.700e-5
1.243, 2.716e-5
1.244, 2.732e-5
1.245, 2.749e-5
1.246, 2.765e-5
1.247, 2.782e-5
1.248, 2.799e-5
1.249, 2.817e-5
1.250, 2.834e-5
1.251, 2.852e-5
1.252, 2.870e-5
1.253, 2.889e-5
1.254, 2.907e-5
1.255, 2.926e-5
1.256, 2.945e-5
1.257, 2.965e-5
1.258, 2.984e-5
1.259, 3.004e-5
1.260, 3.025e-5
1.261, 3.045e-5
1.262, 3.066e-5
1.263, 3.087e-5
1.264, 3.108e-5
1.265, 3.130e-5
1.266, 3.151e-5
1.267, 3.174e-5
1.268, 3.196e-5
1.269, 3.219e-5
1.270, 3.243e-5
1.271, 3.266e-5
1.272, 3.290e-5
1.273, 3.314e-5
1.274, 3.338e-5
1.275, 3.364e-5
1.276, 3.389e-5
1.277, 3.414e-5
1.278, 3.440e-5
1.279, 3.467e-5
1.280, 3.493e-5
1.281, 3.520e-5
1.282, 3.547e-5
1.283, 3.575e-5
1.284, 3.603e-5
1.285, 3.631e-5
1.286, 3.660e-5
1.287, 3.689e-5
1.288, 3.719e-5
1.289, 3.749e-5
1.290, 3.778e-5
1.291, 3.809e-5
1.292, 3.839e-5
1.293, 3.871e-5
1.294, 3.902e-5
1.295, 3.934e-5
1.296, 3.966e-5
1.297, 3.999e-5
1.298, 4.031e-5
1.299, 4.065e-5
1.300, 4.074e-5
1.299, 3.994e-5
1.298, 3.897e-5
1.297, 3.804e-5
1.296, 3.715e-5
1.295, 3.630e-5
1.294, 3.550e-5
1.293, 3.472e-5
1.292, 3.398e-5
1.291, 3.326e-5
1.290, 3.257e-5
1.289, 3.191e-5
1.288, 3.126e-5
1.287, 3.064e-5
1.286, 3.004e-5
1.285, 2.946e-5
1.284, 2.889e-5
1.283, 2.834e-5
1.282, 2.781e-5
1.281, 2.729e-5
1.280, 2.679e-5
1.279, 2.630e-5
1.278, 2.583e-5
1.277, 2.537e-5
1.276, 2.492e-5
1.275, 2.448e-5
1.274, 2.405e-5
1.273, 2.364e-5
1.272, 2.324e-5
1.271, 2.284e-5
1.270, 2.246e-5
1.269, 2.209e-5
1.268, 2.172e-5
1.267, 2.137e-5
1.266, 2.101e-5
1.265, 2.068e-5
1.264, 2.035e-5
1.263, 2.002e-5
1.262, 1.970e-5
1.261, 1.939e-5
1.260, 1.909e-5
1.259, 1.880e-5
1.258, 1.851e-5
1.257, 1.822e-5
1.256, 1.795e-5
1.255, 1.767e-5
1.254, 1.741e-5
1.253, 1.715e-5
1.252, 1.690e-5
1.251, 1.665e-5
1.250, 1.640e-5
1.249, 1.617e-5
1.248, 1.593e-5
1.247, 1.570e-5
1.246, 1.548e-5
1.245, 1.526e-5
1.244, 1.504e-5
1.243, 1.483e-5
1.242, 1.462e-5
1.241, 1.442e-5
1.240, 1.422e-5
1.239, 1.403e-5
1.238, 1.384e-5
1.237, 1.365e-5
1.236, 1.346e-5
1.235, 1.328e-5
1.234, 1.311e-5
1.233, 1.293e-5
1.232, 1.276e-5
1.231, 1.259e-5
1.230, 1.243e-5
1.229, 1.227e-5
1.228, 1.210e-5
1.227, 1.195e-5
1.226, 1.180e-5
1.225, 1.165e-5
1.224, 1.150e-5
1.223, 1.135e-5
1.222, 1.121e-5
1.221, 1.107e-5
1.220, 1.093e-5
1.219, 1.080e-5
1.218, 1.067e-5
1.217, 1.054e-5
1.216, 1.041e-5
1.215, 1.028e-5
1.214, 1.016e-5
1.213, 1.004e-5
1.212, 9.916e-6
1.211, 9.798e-6
1.210, 9.681e-6
1.209, 9.568e-6
1.208, 9.458e-6
1.207, 9.346e-6
1.206, 9.239e-6
1.205, 9.132e-6
1.204, 9.026e-6
1.203, 8.924e-6
1.202, 8.822e-6
1.201, 8.722e-6
1.200, 8.624e-6
1.199, 8.527e-6
1.198, 8.433e-6
1.197, 8.338e-6
1.196, 8.245e-6
1.195, 8.156e-6
1.194, 8.067e-6
1.193, 7.980e-6
1.192, 7.894e-6
1.191, 7.807e-6
1.190, 7.725e-6
1.189, 7.643e-6
1.188, 7.562e-6
1.187, 7.482e-6
1.186, 7.403e-6
1.185, 7.326e-6
1.184, 7.250e-6
1.183, 7.173e-6
1.182, 7.101e-6
1.181, 7.028e-6
1.180, 6.957e-6
1.179, 6.886e-6
1.178, 6.816e-6
1.177, 6.747e-6
1.176, 6.680e-6
1.175, 6.613e-6
1.174, 6.549e-6
1.173, 6.484e-6
1.172, 6.420e-6
1.171, 6.359e-6
1.170, 6.298e-6
1.169, 6.237e-6
1.168, 6.178e-6
1.167, 6.118e-6
1.166, 6.061e-6
1.165, 6.003e-6
1.164, 5.946e-6
1.163, 5.891e-6
1.162, 5.837e-6
1.161, 5.783e-6
1.160, 5.731e-6
1.159, 5.677e-6
1.158, 5.627e-6
1.157, 5.575e-6
1.156, 5.525e-6
1.155, 5.476e-6
1.154, 5.428e-6
1.153, 5.380e-6
1.152, 5.333e-6
1.151, 5.285e-6
1.150, 5.241e-6
1.149, 5.195e-6
1.148, 5.150e-6
1.147, 5.106e-6
1.146, 5.063e-6
1.145, 5.020e-6
1.144, 4.979e-6
1.143, 4.936e-6
1.142, 4.897e-6
1.141, 4.856e-6
1.140, 4.817e-6
1.139, 4.778e-6
1.138, 4.739e-6
1.137, 4.701e-6
1.136, 4.665e-6
1.135, 4.626e-6
1.134, 4.591e-6
1.133, 4.554e-6
1.132, 4.519e-6
1.131, 4.484e-6
1.130, 4.448e-6
1.129, 4.413e-6
1.128, 4.381e-6
1.127, 4.346e-6
1.126, 4.313e-6
1.125, 4.280e-6
1.124, 4.250e-6
1.123, 4.219e-6
1.122, 4.188e-6
1.121, 4.157e-6
1.120, 4.128e-6
1.119, 4.096e-6
1.118, 4.068e-6
1.117, 4.038e-6
1.116, 4.010e-6
1.115, 3.981e-6
1.114, 3.953e-6
1.113, 3.926e-6
1.112, 3.900e-6
1.111, 3.871e-6
1.110, 3.847e-6
1.109, 3.820e-6
1.108, 3.795e-6
1.107, 3.769e-6
1.106, 3.744e-6
1.105, 3.719e-6
1.104, 3.696e-6
1.103, 3.670e-6
1.102, 3.648e-6
1.101, 3.623e-6
1.100, 3.600e-6
1.099, 3.578e-6
1.098, 3.556e-6
1.097, 3.533e-6
1.096, 3.512e-6
1.095, 3.489e-6
1.094, 3.470e-6
1.093, 3.448e-6
1.092, 3.427e-6
1.091, 3.407e-6
1.090, 3.386e-6
1.089, 3.366e-6
1.088, 3.348e-6
1.087, 3.326e-6
1.086, 3.310e-6
1.085, 3.290e-6
1.084, 3.272e-6
1.083, 3.254e-6
1.082, 3.236e-6
1.081, 3.218e-6
1.080, 3.201e-6
1.079, 3.182e-6
1.078, 3.167e-6
1.077, 3.149e-6
1.076, 3.132e-6
1.075, 3.117e-6
1.074, 3.100e-6
1.073, 3.084e-6
1.072, 3.070e-6
1.071, 3.053e-6
1.070, 3.040e-6
1.069, 3.023e-6
1.068, 3.009e-6
1.067, 2.995e-6
1.066, 2.981e-6
1.065, 2.966e-6
1.064, 2.953e-6
1.063, 2.938e-6
1.062, 2.926e-6
1.061, 2.911e-6
1.060, 2.898e-6
1.059, 2.885e-6
1.058, 2.872e-6
1.057, 2.859e-6
1.056, 2.848e-6
1.055, 2.834e-6
1.054, 2.824e-6
1.053, 2.810e-6
1.052, 2.799e-6
1.051, 2.787e-6
1.050, 2.776e-6
1.049, 2.765e-6
1.048, 2.755e-6
1.047, 2.742e-6
1.046, 2.733e-6
1.045, 2.721e-6
1.044, 2.710e-6
1.043, 2.700e-6
1.042, 2.691e-6
1.041, 2.680e-6
1.040, 2.671e-6
1.039, 2.659e-6
1.038, 2.650e-6
1.037, 2.640e-6
1.036, 2.630e-6
1.035, 2.621e-6
1.034, 2.611e-6
1.033, 2.602e-6
1.032, 2.593e-6
1.031, 2.582e-6
1.030, 2.575e-6
1.029, 2.565e-6
1.028, 2.556e-6
1.027, 2.547e-6
1.026, 2.538e-6
1.025, 2.529e-6
1.024, 2.521e-6
1.023, 2.510e-6
1.022, 2.504e-6
1.021, 2.494e-6
1.020, 2.487e-6
1.019, 2.479e-6
1.018, 2.471e-6
1.017, 2.461e-6
1.016, 2.454e-6
1.015, 2.445e-6
1.014, 2.439e-6
1.013, 2.429e-6
1.012, 2.422e-6
1.011, 2.414e-6
1.010, 2.406e-6
1.009, 2.398e-6
1.008, 2.391e-6
1.007, 2.382e-6
1.006, 2.376e-6
1.005, 2.368e-6
1.004, 2.360e-6
1.003, 2.353e-6
1.002, 2.346e-6
1.001, 2.338e-6
1.000, 2.331e-6
0.999, 2.323e-6
0.998, 2.317e-6
0.997, 2.309e-6
0.996, 2.302e-6
0.995, 2.295e-6
0.994, 2.288e-6
0.993, 2.280e-6
0.992, 2.275e-6
0.991, 2.266e-6
0.990, 2.261e-6
0.989, 2.253e-6
0.988, 2.247e-6
0.987, 2.240e-6
0.986, 2.233e-6
0.985, 2.226e-6
0.984, 2.220e-6
0.983, 2.212e-6
0.982, 2.207e-6
0.981, 2.199e-6
0.980, 2.193e-6
0.979, 2.187e-6
0.978, 2.180e-6
0.977, 2.173e-6
0.976, 2.167e-6
0.975, 2.159e-6
0.974, 2.154e-6
0.973, 2.147e-6
0.972, 2.141e-6
0.971, 2.134e-6
0.970, 2.128e-6
0.969, 2.122e-6
0.968, 2.116e-6
0.967, 2.108e-6
0.966, 2.104e-6
0.965, 2.097e-6
0.964, 2.091e-6
0.963, 2.084e-6
0.962, 2.078e-6
0.961, 2.071e-6
0.960, 2.066e-6
0.959, 2.058e-6
0.958, 2.054e-6
0.957, 2.047e-6
0.956, 2.041e-6
0.955, 2.035e-6
0.954, 2.028e-6
0.953, 2.022e-6
0.952, 2.016e-6
0.951, 2.009e-6
0.950, 2.004e-6
0.949, 1.997e-6
0.948, 1.990e-6
0.947, 1.984e-6
0.946, 1.978e-6
0.945, 1.971e-6
0.944, 1.966e-6
0.943, 1.958e-6
0.942, 1.953e-6
0.941, 1.946e-6
0.940, 1.940e-6
0.939, 1.933e-6
0.938, 1.927e-6
0.937, 1.920e-6
0.936, 1.914e-6
0.935, 1.906e-6
0.934, 1.900e-6
0.933, 1.893e-6
0.932, 1.886e-6
0.931, 1.879e-6
0.930, 1.872e-6
0.929, 1.864e-6
0.928, 1.858e-6
0.927, 1.850e-6
0.926, 1.843e-6
0.925, 1.836e-6
0.924, 1.828e-6
0.923, 1.820e-6
0.922, 1.812e-6
0.921, 1.803e-6
0.920, 1.797e-6
0.919, 1.788e-6
0.918, 1.781e-6
0.917, 1.772e-6
0.916, 1.764e-6
0.915, 1.756e-6
0.914, 1.748e-6
0.913, 1.739e-6
0.912, 1.732e-6
0.911, 1.721e-6
0.910, 1.714e-6
0.909, 1.703e-6
0.908, 1.694e-6
0.907, 1.685e-6
0.906, 1.675e-6
0.905, 1.665e-6
0.904, 1.655e-6
0.903, 1.644e-6
0.902, 1.635e-6
0.901, 1.623e-6
0.900, 1.613e-6
0.899, 1.602e-6
0.898, 1.591e-6
0.897, 1.579e-6
0.896, 1.568e-6
0.895, 1.555e-6
0.894, 1.545e-6
0.893, 1.532e-6
0.892, 1.520e-6
0.891, 1.507e-6
0.890, 1.494e-6
0.889, 1.480e-6
0.888, 1.468e-6
0.887, 1.452e-6
0.886, 1.440e-6
0.885, 1.424e-6
0.884, 1.409e-6
0.883, 1.394e-6
0.882, 1.378e-6
0.881, 1.361e-6
0.880, 1.345e-6
0.879, 1.328e-6
0.878, 1.312e-6
0.877, 1.293e-6
0.876, 1.276e-6
0.875, 1.258e-6
0.874, 1.239e-6
0.873, 1.220e-6
0.872, 1.200e-6
0.871, 1.179e-6
0.870, 1.159e-6
0.869, 1.138e-6
0.868, 1.117e-6
0.867, 1.095e-6
0.866, 1.072e-6
0.865, 1.048e-6
0.864, 1.025e-6
0.863, 9.983e-7
0.862, 9.746e-7
0.861, 9.473e-7
0.860, 9.209e-7
0.859, 8.933e-7
0.858, 8.651e-7
0.857, 8.352e-7
0.856, 8.068e-7
0.855, 7.744e-7
0.854, 7.454e-7
0.853, 7.110e-7
0.852, 6.785e-7
0.851, 6.447e-7
0.850, 6.093e-7
0.849, 5.715e-7
0.848, 5.359e-7
0.847, 4.953e-7
0.846, 4.584e-7
0.845, 4.148e-7
0.844, 3.744e-7
0.843, 3.320e-7
0.842, 2.872e-7
0.841, 2.420e-7
0.840, 1.971e-7
0.839, 1.466e-7
0.838, 9.982e-8
0.837, 4.665e-8
0.836, -4.354e-9
0.835, -5.867e-8
0.834, -1.147e-7
0.833, -1.731e-7
0.832, -2.305e-7
0.831, -2.938e-7
0.830, -3.517e-7
0.829, -4.188e-7
0.828, -4.814e-7
0.827, -5.507e-7
0.826, -6.203e-7
0.825, -6.927e-7
0.824, -7.636e-7
0.823, -8.421e-7
0.822, -9.146e-7
0.821, -9.991e-7
0.820, -1.079e-6
0.819, -1.174e-6
0.818, -1.257e-6
0.817, -1.342e-6
0.816, -1.427e-6
0.815, -1.522e-6
0.814, -1.611e-6
0.813, -1.712e-6
0.812, -1.809e-6
0.811, -1.912e-6
0.810, -2.014e-6
0.809, -2.119e-6
0.808, -2.226e-6
0.807, -2.342e-6
0.806, -2.449e-6
0.805, -2.569e-6
0.804, -2.682e-6
0.803, -2.803e-6
0.802, -2.922e-6
0.801, -3.048e-6
0.800, -3.171e-6
0.799, -3.305e-6
0.798, -3.429e-6
0.797, -3.565e-6
0.796, -3.696e-6
0.795, -3.835e-6
0.794, -3.973e-6
0.793, -4.115e-6
0.792, -4.249e-6
0.791, -4.399e-6
0.790, -4.532e-6
0.789, -4.682e-6
0.788, -4.825e-6
0.787, -4.977e-6
0.786, -5.123e-6
0.785, -5.274e-6
0.784, -5.424e-6
0.783, -5.581e-6
0.782, -5.722e-6
0.781, -5.883e-6
0.780, -6.027e-6
0.779, -6.182e-6
0.778, -6.332e-6
0.777, -6.485e-6
0.776, -6.632e-6
0.775, -6.791e-6
0.774, -6.927e-6
0.773, -7.086e-6
0.772, -7.224e-6
0.771, -7.370e-6
0.770, -7.511e-6
0.769, -7.656e-6
0.768, -7.792e-6
0.767, -7.938e-6
0.766, -8.061e-6
0.765, -8.201e-6
0.764, -8.325e-6
0.763, -8.454e-6
0.762, -8.574e-6
0.761, -8.697e-6
0.760, -8.810e-6
0.759, -8.932e-6
0.758, -9.030e-6
0.757, -9.147e-6
0.756, -9.243e-6
0.755, -9.347e-6
0.754, -9.438e-6
0.753, -9.534e-6
0.752, -9.616e-6
0.751, -9.704e-6
0.750, -9.775e-6
0.749, -9.857e-6
0.748, -9.921e-6
0.747, -9.991e-6
0.746, -1.005e-5
0.745, -1.011e-5
0.744, -1.016e-5
0.743, -1.022e-5
0.742, -1.025e-5
0.741, -1.030e-5
0.740, -1.033e-5
0.739, -1.037e-5
0.738, -1.039e-5
0.737, -1.042e-5
0.736, -1.043e-5
0.735, -1.046e-5
0.734, -1.046e-5
0.733, -1.048e-5
0.732, -1.048e-5
0.731, -1.049e-5
0.730, -1.048e-5
0.729, -1.048e-5
0.728, -1.047e-5
0.727, -1.046e-5
0.726, -1.044e-5
0.725, -1.043e-5
0.724, -1.041e-5
0.723, -1.039e-5
0.722, -1.037e-5
0.721, -1.034e-5
0.720, -1.031e-5
0.719, -1.028e-5
0.718, -1.024e-5
0.717, -1.022e-5
0.716, -1.018e-5
0.715, -1.014e-5
0.714, -1.010e-5
0.713, -1.006e-5
0.712, -1.001e-5
0.711, -9.972e-6
0.710, -9.921e-6
0.709, -9.879e-6
0.708, -9.830e-6
0.707, -9.781e-6
0.706, -9.731e-6
0.705, -9.682e-6
0.704, -9.629e-6
0.703, -9.582e-6
0.702, -9.525e-6
0.701, -9.476e-6
0.700, -9.421e-6
0.699, -9.368e-6
0.698, -9.315e-6
0.697, -9.261e-6
0.696, -9.205e-6
0.695, -9.154e-6
0.694, -9.097e-6
0.693, -9.045e-6
0.692, -8.991e-6
0.691, -8.935e-6
0.690, -8.883e-6
0.689, -8.828e-6
0.688, -8.773e-6
0.687, -8.721e-6
0.686, -8.665e-6
0.685, -8.613e-6
0.684, -8.561e-6
0.683, -8.507e-6
0.682, -8.456e-6
0.681, -8.404e-6
0.680, -8.351e-6
0.679, -8.300e-6
0.678, -8.248e-6
0.677, -8.199e-6
0.676, -8.149e-6
0.675, -8.099e-6
0.674, -8.051e-6
0.673, -8.001e-6
0.672, -7.953e-6
0.671, -7.906e-6
0.670, -7.857e-6
0.669, -7.811e-6
0.668, -7.765e-6
0.667, -7.718e-6
0.666, -7.673e-6
0.665, -7.628e-6
0.664, -7.584e-6
0.663, -7.542e-6
0.662, -7.498e-6
0.661, -7.456e-6
0.660, -7.414e-6
0.659, -7.371e-6
0.658, -7.331e-6
0.657, -7.289e-6
0.656, -7.249e-6
0.655, -7.209e-6
0.654, -7.169e-6
0.653, -7.130e-6
0.652, -7.093e-6
0.651, -7.054e-6
0.650, -7.018e-6
0.649, -6.980e-6
0.648, -6.945e-6
0.647, -6.908e-6
0.646, -6.873e-6
0.645, -6.838e-6
0.644, -6.804e-6
0.643, -6.768e-6
0.642, -6.736e-6
0.641, -6.702e-6
0.640, -6.669e-6
0.639, -6.637e-6
0.638, -6.605e-6
0.637, -6.574e-6
0.636, -6.543e-6
0.635, -6.511e-6
0.634, -6.482e-6
0.633, -6.452e-6
0.632, -6.423e-6
0.631, -6.393e-6
0.630, -6.364e-6
0.629, -6.336e-6
0.628, -6.309e-6
0.627, -6.280e-6
0.626, -6.253e-6
0.625, -6.226e-6
0.624, -6.200e-6
0.623, -6.174e-6
0.622, -6.148e-6
0.621, -6.122e-6
0.620, -6.098e-6
0.619, -6.072e-6
0.618, -6.049e-6
0.617, -6.024e-6
0.616, -6.002e-6
0.615, -5.979e-6
0.614, -5.955e-6
0.613, -5.932e-6
0.612, -5.910e-6
0.611, -5.886e-6
0.610, -5.865e-6
0.609, -5.842e-6
0.608, -5.822e-6
0.607, -5.801e-6
0.606, -5.779e-6
0.605, -5.758e-6
0.604, -5.739e-6
0.603, -5.717e-6
0.602, -5.699e-6
0.601, -5.678e-6
0.600, -5.659e-6
0.599, -5.640e-6
0.598, -5.621e-6
0.597, -5.601e-6
0.596, -5.583e-6
0.595, -5.564e-6
0.594, -5.548e-6
0.593, -5.528e-6
0.592, -5.511e-6
0.591, -5.494e-6
0.590, -5.477e-6
0.589, -5.459e-6
0.588, -5.443e-6
0.587, -5.426e-6
0.586, -5.411e-6
0.585, -5.393e-6
0.584, -5.377e-6
0.583, -5.362e-6
0.582, -5.346e-6
0.581, -5.330e-6
0.580, -5.316e-6
0.579, -5.299e-6
0.578, -5.285e-6
0.577, -5.269e-6
0.576, -5.256e-6
0.575, -5.240e-6
0.574, -5.226e-6
0.573, -5.211e-6
0.572, -5.198e-6
0.571, -5.182e-6
0.570, -5.170e-6
0.569, -5.156e-6
0.568, -5.143e-6
0.567, -5.130e-6
0.566, -5.116e-6
0.565, -5.103e-6
0.564, -5.091e-6
0.563, -5.077e-6
0.562, -5.065e-6
0.561, -5.051e-6
0.560, -5.040e-6
0.559, -5.027e-6
0.558, -5.015e-6
0.557, -5.002e-6
0.556, -4.992e-6
0.555, -4.978e-6
0.554, -4.968e-6
0.553, -4.955e-6
0.552, -4.944e-6
0.551, -4.932e-6
0.550, -4.921e-6
0.549, -4.909e-6
0.548, -4.900e-6
0.547, -4.886e-6
0.546, -4.877e-6
0.545, -4.865e-6
0.544, -4.855e-6
0.543, -4.844e-6
0.542, -4.834e-6
0.541, -4.823e-6
0.540, -4.813e-6
0.539, -4.802e-6
0.538, -4.793e-6
0.537, -4.782e-6
0.536, -4.772e-6
0.535, -4.762e-6
0.534, -4.752e-6
0.533, -4.742e-6
0.532, -4.733e-6
0.531, -4.723e-6
0.530, -4.714e-6
0.529, -4.704e-6
0.528, -4.695e-6
0.527, -4.686e-6
0.526, -4.677e-6
0.525, -4.667e-6
0.524, -4.660e-6
0.523, -4.649e-6
0.522, -4.642e-6
0.521, -4.632e-6
0.520, -4.624e-6
0.519, -4.615e-6
0.518, -4.606e-6
0.517, -4.598e-6
0.516, -4.591e-6
0.515, -4.581e-6
0.514, -4.574e-6
0.513, -4.565e-6
0.512, -4.558e-6
0.511, -4.550e-6
0.510, -4.541e-6
0.509, -4.533e-6
0.508, -4.526e-6
0.507, -4.516e-6
0.506, -4.510e-6
0.505, -4.502e-6
0.504, -4.495e-6
0.503, -4.487e-6
0.502, -4.479e-6
0.501, -4.472e-6
0.500, -4.466e-6
0.499, -4.457e-6
0.498, -4.452e-6
0.497, -4.444e-6
0.496, -4.437e-6
0.495, -4.430e-6
0.494, -4.424e-6
0.493, -4.416e-6
0.492, -4.410e-6
0.491, -4.402e-6
0.490, -4.397e-6
0.489, -4.389e-6
0.488, -4.383e-6
0.487, -4.376e-6
0.486, -4.370e-6
0.485, -4.363e-6
0.484, -4.357e-6
0.483, -4.349e-6
0.482, -4.344e-6
0.481, -4.337e-6
0.480, -4.332e-6
0.479, -4.326e-6
0.478, -4.319e-6
0.477, -4.313e-6
0.476, -4.307e-6
0.475, -4.300e-6
0.474, -4.296e-6
0.473, -4.289e-6
0.472, -4.283e-6
0.471, -4.277e-6
0.470, -4.272e-6
0.469, -4.266e-6
0.468, -4.262e-6
0.467, -4.255e-6
0.466, -4.251e-6
0.465, -4.244e-6
0.464, -4.239e-6
0.463, -4.234e-6
0.462, -4.228e-6
0.461, -4.222e-6
0.460, -4.218e-6
0.459, -4.211e-6
0.458, -4.207e-6
0.457, -4.201e-6
0.456, -4.197e-6
0.455, -4.191e-6
0.454, -4.186e-6
0.453, -4.181e-6
0.452, -4.177e-6
0.451, -4.170e-6
0.450, -4.167e-6
0.449, -4.161e-6
0.448, -4.157e-6
0.447, -4.152e-6
0.446, -4.147e-6
0.445, -4.142e-6
0.444, -4.138e-6
0.443, -4.131e-6
0.442, -4.128e-6
0.441, -4.123e-6
0.440, -4.119e-6
0.439, -4.114e-6
0.438, -4.109e-6
0.437, -4.105e-6
0.436, -4.102e-6
0.435, -4.096e-6
0.434, -4.093e-6
0.433, -4.087e-6
0.432, -4.083e-6
0.431, -4.079e-6
0.430, -4.074e-6
0.429, -4.069e-6
0.428, -4.066e-6
0.427, -4.061e-6
0.426, -4.058e-6
0.425, -4.053e-6
0.424, -4.049e-6
0.423, -4.045e-6
0.422, -4.041e-6
0.421, -4.037e-6
0.420, -4.034e-6
0.419, -4.029e-6
0.418, -4.026e-6
0.417, -4.022e-6
0.416, -4.018e-6
0.415, -4.014e-6
0.414, -4.010e-6
0.413, -4.006e-6
0.412, -4.004e-6
0.411, -3.999e-6
0.410, -3.998e-6
0.409, -3.994e-6
0.408, -3.989e-6
0.407, -3.986e-6
0.406, -3.982e-6
0.405, -3.978e-6
0.404, -3.976e-6
0.403, -3.971e-6
0.402, -3.969e-6
0.401, -3.965e-6
0.400, -3.962e-6
0.399, -3.959e-6
0.398, -3.956e-6
0.397, -3.952e-6
0.396, -3.950e-6
0.395, -3.945e-6
0.394, -3.943e-6
0.393, -3.939e-6
0.392, -3.937e-6
0.391, -3.934e-6
0.390, -3.930e-6
0.389, -3.927e-6
0.388, -3.925e-6
0.387, -3.922e-6
0.386, -3.920e-6
0.385, -3.916e-6
0.384, -3.914e-6
0.383, -3.911e-6
0.382, -3.908e-6
0.381, -3.905e-6
0.380, -3.903e-6
0.379, -3.899e-6
0.378, -3.898e-6
0.377, -3.894e-6
0.376, -3.892e-6
0.375, -3.890e-6
0.374, -3.887e-6
0.373, -3.884e-6
0.372, -3.883e-6
0.371, -3.879e-6
0.370, -3.878e-6
0.369, -3.875e-6
0.368, -3.872e-6
0.367, -3.870e-6
0.366, -3.868e-6
0.365, -3.865e-6
0.364, -3.864e-6
0.363, -3.860e-6
0.362, -3.859e-6
0.361, -3.856e-6
0.360, -3.854e-6
0.359, -3.853e-6
0.358, -3.850e-6
0.357, -3.848e-6
0.356, -3.846e-6
0.355, -3.843e-6
0.354, -3.842e-6
0.353, -3.839e-6
0.352, -3.837e-6
0.351, -3.836e-6
0.350, -3.833e-6
0.349, -3.831e-6
0.348, -3.830e-6
0.347, -3.827e-6
0.346, -3.826e-6
0.345, -3.824e-6
0.344, -3.822e-6
0.343, -3.821e-6
0.342, -3.818e-6
0.341, -3.816e-6
0.340, -3.816e-6
0.339, -3.813e-6
0.338, -3.812e-6
0.337, -3.809e-6
0.336, -3.808e-6
0.335, -3.807e-6
0.334, -3.805e-6
0.333, -3.803e-6
0.332, -3.802e-6
0.331, -3.799e-6
0.330, -3.799e-6
0.329, -3.796e-6
0.328, -3.795e-6
0.327, -3.794e-6
0.326, -3.792e-6
0.325, -3.790e-6
0.324, -3.790e-6
0.323, -3.787e-6
0.322, -3.786e-6
0.321, -3.785e-6
0.320, -3.784e-6
0.319, -3.782e-6
0.318, -3.780e-6
0.317, -3.779e-6
0.316, -3.779e-6
0.315, -3.776e-6
0.314, -3.776e-6
0.313, -3.774e-6
0.312, -3.773e-6
0.311, -3.772e-6
0.310, -3.770e-6
0.309, -3.769e-6
0.308, -3.769e-6
0.307, -3.769e-6
0.306, -3.768e-6
0.305, -3.765e-6
0.304, -3.764e-6
0.303, -3.763e-6
0.302, -3.762e-6
0.301, -3.761e-6
